Data from LOOPyPMA-1_QEP046991__0__18-11-09-757.txt Node

Date: Sun May 11 18:11:09 CEST 2025
User: superuser
Spectrometer: QEP04699
Trigger mode: 4
Integration Time (sec): 1.000000E-1
Scans to average: 1
Electric dark correction enabled: true
Nonlinearity correction enabled: false
Boxcar width: 0
XAxis mode: Wavelengths
Number of Pixels in Spectrum: 1044
>>>>>Begin Spectral Data<<<<<
347.57	11.88
348.165	1.88
348.76	-4.12
349.355	-2.12
349.95	-4.12
350.545	-3.12
351.14	-2.12
351.735	-0.12
352.33	2.88
352.924	-0.12
353.519	0.88
354.114	-0.12
354.708	-2.12
355.303	-1.12
355.897	-4.12
356.491	-1.12
357.086	-2.12
357.68	-0.12
358.274	-0.12
358.868	0.88
359.462	-4.12
360.056	0.88
360.65	-1.12
361.244	-3.12
361.838	-0.12
362.431	-2.12
363.025	4.88
363.619	-2.12
364.212	1.88
364.806	0.88
365.399	-4.12
365.993	-2.12
366.586	1.88
367.179	2.88
367.772	-5.12
368.366	-1.12
368.959	-1.12
369.552	1.88
370.145	1.88
370.738	-1.12
371.331	-2.12
371.923	-0.12
372.516	0.88
373.109	0.88
373.701	-4.12
374.294	-1.12
374.887	2.88
375.479	-0.12
376.071	1.88
376.664	1.88
377.256	-2.12
377.848	-0.12
378.44	-3.12
379.033	-3.12
379.625	-5.12
380.217	-3.12
380.808	-1.12
381.4	-0.12
381.992	-0.12
382.584	-4.12
383.176	-0.12
383.767	-2.12
384.359	2.88
384.95	2.88
385.542	-0.12
386.133	-3.12
386.725	-1.12
387.316	-2.12
387.907	0.88
388.498	3.88
389.089	0.88
389.68	4.88
390.271	2.88
390.862	-1.12
391.453	3.88
392.044	-1.12
392.635	-4.12
393.225	-1.12
393.816	-1.12
394.407	1.88
394.997	-0.12
395.588	1.88
396.178	-3.12
396.768	1.88
397.359	2.88
397.949	-2.12
398.539	-1.12
399.129	-0.12
399.719	-1.12
400.309	-0.12
400.899	5.88
401.489	0.88
402.079	0.88
402.668	5.88
403.258	-0.12
403.848	0.88
404.437	2.88
405.027	1.88
405.616	2.88
406.206	0.88
406.795	3.88
407.384	1.88
407.973	3.88
408.563	0.88
409.152	4.88
409.741	0.88
410.33	2.88
410.919	5.88
411.508	4.88
412.096	2.88
412.685	4.88
413.274	6.88
413.862	4.88
414.451	3.88
415.039	3.88
415.628	11.88
416.216	8.88
416.805	2.88
417.393	6.88
417.981	8.88
418.569	8.88
419.157	10.88
419.745	10.88
420.333	12.88
420.921	14.88
421.509	14.88
422.097	15.88
422.685	14.88
423.272	14.88
423.86	16.88
424.447	18.88
425.035	23.88
425.622	23.88
426.21	22.88
426.797	25.88
427.384	29.88
427.972	28.88
428.559	31.88
429.146	38.88
429.733	45.88
430.32	39.88
430.907	44.88
431.494	49.88
432.08	54.88
432.667	55.88
433.254	65.88
433.84	67.88
434.427	66.88
435.013	82.88
435.6	83.88
436.186	93.88
436.772	98.88
437.359	108.88
437.945	115.88
438.531	128.88
439.117	137.88
439.703	146.88
440.289	143.88
440.875	172.88
441.461	181.88
442.047	191.88
442.632	210.88
443.218	232.88
443.804	244.88
444.389	243.88
444.975	283.88
445.56	308.88
446.145	330.88
446.731	349.88
447.316	375.88
447.901	391.88
448.486	425.88
449.071	461.88
449.656	490.88
450.241	525.88
450.826	572.88
451.411	610.88
451.996	657.88
452.58	707.88
453.165	773.88
453.75	802.88
454.334	884.88
454.919	949.88
455.503	1004.88
456.087	1112.88
456.672	1179.88
457.256	1263.88
457.84	1363.88
458.424	1449.88
459.008	1545.88
459.592	1646.88
460.176	1756.88
460.76	1849.88
461.344	1925.88
461.927	2001.88
462.511	2090.88
463.095	2149.88
463.678	2170.88
464.262	2190.88
464.845	2212.88
465.429	2209.88
466.012	2194.88
466.595	2144.88
467.178	2105.88
467.762	2041.88
468.345	1983.88
468.928	1908.88
469.511	1808.88
470.094	1694.88
470.676	1585.88
471.259	1496.88
471.842	1417.88
472.425	1336.88
473.007	1213.88
473.59	1140.88
474.172	1054.88
474.755	1008.88
475.337	926.88
475.919	860.88
476.502	806.88
477.084	790.88
477.666	726.88
478.248	706.88
478.83	655.88
479.412	615.88
479.994	600.88
480.576	576.88
481.157	550.88
481.739	512.88
482.321	473.88
482.902	445.88
483.484	433.88
484.065	410.88
484.647	379.88
485.228	364.88
485.809	334.88
486.391	315.88
486.972	292.88
487.553	273.88
488.134	256.88
488.715	238.88
489.296	228.88
489.877	214.88
490.458	207.88
491.038	197.88
491.619	174.88
492.2	178.88
492.78	160.88
493.361	149.88
493.941	149.88
494.522	142.88
495.102	136.88
495.682	127.88
496.262	127.88
496.843	128.88
497.423	116.88
498.003	121.88
498.583	113.88
499.163	97.88
499.742	101.88
500.322	99.88
500.902	96.88
501.482	95.88
502.061	95.88
502.641	89.88
503.22	79.88
503.8	89.88
504.379	82.88
504.958	77.88
505.538	89.88
506.117	84.88
506.696	74.88
507.275	81.88
507.854	83.88
508.433	78.88
509.012	79.88
509.591	75.88
510.169	83.88
510.748	81.88
511.327	78.88
511.905	87.88
512.484	94.88
513.062	89.88
513.641	105.88
514.219	105.88
514.797	105.88
515.375	107.88
515.954	123.88
516.532	126.88
517.11	134.88
517.688	147.88
518.266	143.88
518.843	165.88
519.421	180.88
519.999	180.88
520.577	180.88
521.154	183.88
521.732	207.88
522.309	207.88
522.887	233.88
523.464	238.88
524.041	241.88
524.619	242.88
525.196	255.88
525.773	268.88
526.35	267.88
526.927	284.88
527.504	289.88
528.081	295.88
528.658	292.88
529.235	304.88
529.811	302.88
530.388	311.88
530.964	309.88
531.541	316.88
532.117	307.88
532.694	311.88
533.27	310.88
533.846	314.88
534.423	309.88
534.999	313.88
535.575	304.88
536.151	307.88
536.727	300.88
537.303	306.88
537.879	304.88
538.455	305.88
539.03	296.88
539.606	295.88
540.182	299.88
540.757	309.88
541.333	289.88
541.908	288.88
542.483	288.88
543.059	285.88
543.634	284.88
544.209	291.88
544.784	291.88
545.359	275.88
545.934	279.88
546.509	264.88
547.084	276.88
547.659	270.88
548.234	272.88
548.808	248.88
549.383	254.88
549.958	272.88
550.532	267.88
551.107	263.88
551.681	253.88
552.255	244.88
552.83	251.88
553.404	251.88
553.978	254.88
554.552	246.88
555.126	249.88
555.7	253.88
556.274	251.88
556.848	259.88
557.422	257.88
557.995	266.88
558.569	252.88
559.143	255.88
559.716	260.88
560.29	266.88
560.863	273.88
561.437	279.88
562.01	274.88
562.583	272.88
563.156	290.88
563.729	286.88
564.302	288.88
564.875	296.88
565.448	297.88
566.021	287.88
566.594	292.88
567.167	293.88
567.74	299.88
568.312	319.88
568.885	321.88
569.457	310.88
570.03	319.88
570.602	316.88
571.174	315.88
571.747	325.88
572.319	321.88
572.891	316.88
573.463	313.88
574.035	310.88
574.607	326.88
575.179	328.88
575.751	302.88
576.323	318.88
576.894	316.88
577.466	311.88
578.038	321.88
578.609	325.88
579.181	316.88
579.752	311.88
580.323	303.88
580.895	318.88
581.466	320.88
582.037	324.88
582.608	325.88
583.179	322.88
583.75	328.88
584.321	331.88
584.892	333.88
585.463	337.88
586.033	335.88
586.604	325.88
587.175	328.88
587.745	336.88
588.316	334.88
588.886	337.88
589.457	334.88
590.027	340.88
590.597	335.88
591.167	333.88
591.737	329.88
592.308	318.88
592.878	315.88
593.447	337.88
594.017	316.88
594.587	322.88
595.157	319.88
595.727	328.88
596.296	308.88
596.866	312.88
597.435	312.88
598.005	311.88
598.574	308.88
599.143	306.88
599.713	307.88
600.282	299.88
600.851	309.88
601.42	314.88
601.989	310.88
602.558	313.88
603.127	303.88
603.696	300.88
604.265	305.88
604.833	299.88
605.402	294.88
605.971	296.88
606.539	291.88
607.108	292.88
607.676	290.88
608.244	287.88
608.813	293.88
609.381	298.88
609.949	291.88
610.517	292.88
611.085	294.88
611.653	295.88
612.221	293.88
612.789	293.88
613.357	292.88
613.924	289.88
614.492	292.88
615.06	275.88
615.627	283.88
616.195	277.88
616.762	282.88
617.329	283.88
617.897	286.88
618.464	287.88
619.031	276.88
619.598	277.88
620.165	272.88
620.732	279.88
621.299	282.88
621.866	279.88
622.433	282.88
623	269.88
623.566	288.88
624.133	280.88
624.7	272.88
625.266	265.88
625.832	276.88
626.399	270.88
626.965	260.88
627.531	263.88
628.098	267.88
628.664	267.88
629.23	261.88
629.796	253.88
630.362	260.88
630.928	249.88
631.493	257.88
632.059	258.88
632.625	244.88
633.19	251.88
633.756	260.88
634.322	251.88
634.887	245.88
635.452	246.88
636.018	244.88
636.583	227.88
637.148	236.88
637.713	245.88
638.278	237.88
638.843	231.88
639.408	235.88
639.973	230.88
640.538	234.88
641.103	219.88
641.667	223.88
642.232	216.88
642.797	223.88
643.361	213.88
643.926	210.88
644.49	215.88
645.054	209.88
645.619	212.88
646.183	201.88
646.747	204.88
647.311	213.88
647.875	194.88
648.439	198.88
649.003	205.88
649.567	196.88
650.131	185.88
650.694	191.88
651.258	186.88
651.822	194.88
652.385	196.88
652.949	182.88
653.512	194.88
654.075	194.88
654.639	188.88
655.202	182.88
655.765	177.88
656.328	179.88
656.891	172.88
657.454	184.88
658.017	172.88
658.58	167.88
659.143	159.88
659.705	165.88
660.268	176.88
660.83	167.88
661.393	168.88
661.955	158.88
662.518	162.88
663.08	170.88
663.643	164.88
664.205	163.88
664.767	145.88
665.329	140.88
665.891	156.88
666.453	151.88
667.015	161.88
667.577	151.88
668.139	154.88
668.7	144.88
669.262	139.88
669.824	146.88
670.385	140.88
670.947	141.88
671.508	126.88
672.069	133.88
672.631	140.88
673.192	131.88
673.753	125.88
674.314	135.88
674.875	131.88
675.436	128.88
675.997	124.88
676.558	125.88
677.119	130.88
677.679	132.88
678.24	123.88
678.801	119.88
679.361	132.88
679.922	124.88
680.482	129.88
681.042	122.88
681.603	112.88
682.163	116.88
682.723	126.88
683.283	116.88
683.843	118.88
684.403	120.88
684.963	113.88
685.523	114.88
686.083	111.88
686.642	108.88
687.202	107.88
687.762	118.88
688.321	103.88
688.881	106.88
689.44	111.88
690	102.88
690.559	109.88
691.118	99.88
691.677	95.88
692.236	99.88
692.795	100.88
693.354	98.88
693.913	94.88
694.472	92.88
695.031	92.88
695.59	94.88
696.148	84.88
696.707	89.88
697.265	92.88
697.824	89.88
698.382	90.88
698.941	81.88
699.499	89.88
700.057	74.88
700.615	85.88
701.173	78.88
701.731	78.88
702.289	83.88
702.847	74.88
703.405	83.88
703.963	74.88
704.521	67.88
705.078	72.88
705.636	78.88
706.194	68.88
706.751	73.88
707.308	67.88
707.866	69.88
708.423	73.88
708.98	69.88
709.537	62.88
710.095	69.88
710.652	64.88
711.209	58.88
711.765	68.88
712.322	66.88
712.879	64.88
713.436	60.88
713.992	58.88
714.549	62.88
715.106	59.88
715.662	64.88
716.218	53.88
716.775	48.88
717.331	50.88
717.887	51.88
718.443	50.88
719	53.88
719.556	51.88
720.112	50.88
720.667	51.88
721.223	46.88
721.779	50.88
722.335	49.88
722.89	41.88
723.446	48.88
724.002	54.88
724.557	48.88
725.112	45.88
725.668	39.88
726.223	49.88
726.778	45.88
727.333	40.88
727.888	42.88
728.443	37.88
728.998	38.88
729.553	48.88
730.108	39.88
730.663	37.88
731.218	42.88
731.772	37.88
732.327	37.88
732.881	40.88
733.436	36.88
733.99	39.88
734.545	40.88
735.099	31.88
735.653	39.88
736.207	30.88
736.761	33.88
737.315	33.88
737.869	32.88
738.423	34.88
738.977	37.88
739.531	32.88
740.084	35.88
740.638	31.88
741.192	29.88
741.745	30.88
742.299	32.88
742.852	35.88
743.405	30.88
743.959	32.88
744.512	32.88
745.065	28.88
745.618	33.88
746.171	28.88
746.724	34.88
747.277	26.88
747.83	23.88
748.382	23.88
748.935	29.88
749.488	25.88
750.04	24.88
750.593	20.88
751.145	24.88
751.698	26.88
752.25	27.88
752.802	28.88
753.354	24.88
753.906	20.88
754.458	16.88
755.01	24.88
755.562	25.88
756.114	23.88
756.666	17.88
757.218	21.88
757.769	22.88
758.321	23.88
758.873	17.88
759.424	20.88
759.975	21.88
760.527	19.88
761.078	19.88
761.629	19.88
762.181	18.88
762.732	19.88
763.283	17.88
763.834	16.88
764.385	20.88
764.935	19.88
765.486	11.88
766.037	10.88
766.588	14.88
767.138	20.88
767.689	14.88
768.239	14.88
768.79	14.88
769.34	16.88
769.89	15.88
770.44	12.88
770.991	10.88
771.541	17.88
772.091	15.88
772.641	13.88
773.191	14.88
773.74	15.88
774.29	14.88
774.84	16.88
775.39	10.88
775.939	16.88
776.489	11.88
777.038	9.88
777.588	9.88
778.137	13.88
778.686	12.88
779.235	13.88
779.784	14.88
780.334	10.88
780.883	13.88
781.431	12.88
781.98	11.88
782.529	17.88
783.078	10.88
783.627	13.88
784.175	15.88
784.724	15.88
785.272	15.88
785.821	13.88
786.369	14.88
786.917	10.88
787.466	7.88
788.014	13.88
788.562	10.88
789.11	6.88
789.658	9.88
790.206	11.88
790.754	11.88
791.302	13.88
791.849	11.88
792.397	9.88
792.945	9.88
793.492	6.88
794.04	9.88
794.587	10.88
795.134	6.88
795.682	11.88
796.229	6.88
796.776	7.88
797.323	12.88
797.87	8.88
798.417	5.88
798.964	7.88
799.511	8.88
800.058	8.88
800.604	5.88
801.151	5.88
801.698	6.88
802.244	7.88
802.791	9.88
803.337	13.88
803.883	7.88
804.43	4.88
804.976	3.88
805.522	2.88
806.068	5.88
806.614	3.88
807.16	4.88
807.706	6.88
808.252	3.88
808.797	6.88
809.343	2.88
809.889	4.88
810.434	4.88
810.98	7.88
811.525	5.88
812.071	9.88
812.616	4.88
813.161	4.88
813.706	4.88
814.252	5.88
814.797	3.88
815.342	6.88
815.886	4.88
816.431	3.88
816.976	3.88
817.521	1.88
818.066	2.88
818.61	4.88
819.155	5.88
819.699	2.88
820.244	5.88
820.788	4.88
821.332	4.88
821.876	2.88
822.421	4.88
822.965	6.88
823.509	5.88
824.053	2.88
824.597	2.88
825.14	4.88
825.684	2.88
826.228	4.88
826.771	-1.12
827.315	2.88
827.859	-0.12
828.402	0.88
828.945	-1.12
829.489	2.88
830.032	3.88
830.575	1.88
831.118	2.88
831.661	-0.12
832.204	1.88
832.747	0.88
833.29	1.88
833.833	2.88
834.376	1.88
834.918	-0.12
835.461	4.88
836.004	4.88
836.546	3.88
837.088	2.88
837.631	2.88
838.173	4.88
838.715	3.88
839.257	0.88
839.8	3.88
840.342	6.88
840.884	4.88
841.425	1.88
841.967	-2.12
842.509	0.88
843.051	4.88
843.592	3.88
844.134	-0.12
844.676	-0.12
845.217	3.88
845.758	3.88
846.3	-4.12
846.841	2.88
847.382	2.88
847.923	-0.12
848.464	-2.12
849.005	2.88
849.546	5.88
850.087	-1.12
850.628	0.88
851.169	2.88
851.709	-0.12
852.25	3.88
852.791	0.88
853.331	3.88
853.871	1.88
854.412	1.88
854.952	0.88
855.492	1.88
856.033	-3.12
856.573	5.88
857.113	-0.12
857.653	1.88
858.193	-1.12
858.732	0.88
859.272	0.88
859.812	-0.12
860.352	0.88
860.891	2.88
861.431	5.88
861.97	-0.12
862.509	-0.12
863.049	2.88
863.588	0.88
864.127	-1.12
864.666	0.88
865.205	-3.12
865.744	2.88
866.283	-1.12
866.822	-0.12
867.361	1.88
867.9	0.88
868.438	3.88
868.977	3.88
869.516	-2.12
870.054	1.88
870.593	2.88
871.131	-0.12
871.669	-0.12
872.207	1.88
872.746	-0.12
873.284	1.88
873.822	2.88
874.36	0.88
874.898	-1.12
875.435	-2.12
875.973	-2.12
876.511	2.88
877.048	0.88
877.586	1.88
878.124	-0.12
878.661	1.88
879.198	-0.12
879.736	-2.12
880.273	-0.12
880.81	-3.12
881.347	-2.12
881.884	-1.12
882.421	-2.12
882.958	1.88
883.495	-1.12
884.032	-1.12
884.569	1.88
885.105	-1.12
885.642	-0.12
886.178	-1.12
886.715	-1.12
887.251	0.88
887.788	-1.12
888.324	-0.12
888.86	-1.12
889.396	1.88
889.932	-1.12
890.468	-1.12
891.004	1.88
891.54	1.88
892.076	2.88
892.612	1.88
893.147	2.88
893.683	-1.12
894.219	1.88
894.754	-0.12
895.29	-0.12
895.825	0.88
896.36	-0.12
896.896	-1.12
897.431	2.88
897.966	2.88
898.501	0.88
899.036	-0.12
899.571	-0.12
900.106	-0.12
900.64	-0.12
901.175	-2.12
901.71	-3.12
902.244	-0.12
902.779	0.88
903.313	-1.12
903.848	0.88
904.382	1.88
904.916	0.88
905.45	-2.12
905.985	-1.12
906.519	-1.12
907.053	-1.12
907.587	-0.12
908.12	-0.12
908.654	0.88
909.188	-0.12
909.722	-0.12
910.255	-2.12
910.789	1.88
911.322	-4.12
911.856	-1.12
912.389	-4.12
912.922	-2.12
913.456	-0.12
913.989	-0.12
914.522	-0.12
915.055	-2.12
915.588	-2.12
916.121	-1.12
916.653	0.88
917.186	-0.12
917.719	-1.12
918.252	-1.12
918.784	-1.12
919.317	-2.12
919.849	-1.12
920.381	-0.12
920.914	-0.12
921.446	1.88
921.978	-1.12
922.51	-4.12
923.042	-1.12
923.574	0.88
924.106	-0.12
924.638	2.88
925.17	-1.12
925.701	1.88
926.233	-0.12
926.765	-1.12
927.296	-3.12
927.828	0.88
928.359	-1.12
928.89	0.88
929.422	0.88
929.953	-3.12
930.484	0.88
931.015	0.88
931.546	-0.12
932.077	1.88
932.608	-4.12
933.138	-3.12
933.669	-5.12
934.2	-1.12
934.73	-2.12
935.261	0.88
