Data from LOOPyPMA-1_QEP046991__18__18-11-27-757.txt Node

Date: Sun May 11 18:11:27 CEST 2025
User: superuser
Spectrometer: QEP04699
Trigger mode: 4
Integration Time (sec): 1.000000E-1
Scans to average: 1
Electric dark correction enabled: true
Nonlinearity correction enabled: false
Boxcar width: 0
XAxis mode: Wavelengths
Number of Pixels in Spectrum: 1044
>>>>>Begin Spectral Data<<<<<
347.57	10.62
348.165	0.62
348.76	-0.38
349.355	0.62
349.95	-3.38
350.545	-4.38
351.14	-1.38
351.735	-0.38
352.33	2.62
352.924	-1.38
353.519	-1.38
354.114	-1.38
354.708	-1.38
355.303	0.62
355.897	-0.38
356.491	-2.38
357.086	-3.38
357.68	-2.38
358.274	0.62
358.868	-0.38
359.462	0.62
360.056	0.62
360.65	-0.38
361.244	-1.38
361.838	1.62
362.431	-2.38
363.025	-2.38
363.619	-1.38
364.212	-0.38
364.806	-0.38
365.399	-0.38
365.993	-1.38
366.586	-0.38
367.179	-1.38
367.772	2.62
368.366	-0.38
368.959	0.62
369.552	1.62
370.145	-2.38
370.738	1.62
371.331	1.62
371.923	-0.38
372.516	1.62
373.109	-0.38
373.701	-1.38
374.294	2.62
374.887	-2.38
375.479	-1.38
376.071	0.62
376.664	-1.38
377.256	0.62
377.848	-1.38
378.44	1.62
379.033	0.62
379.625	2.62
380.217	-0.38
380.808	-1.38
381.4	-5.38
381.992	-0.38
382.584	-1.38
383.176	0.62
383.767	0.62
384.359	-0.38
384.95	-4.38
385.542	2.62
386.133	-0.38
386.725	-1.38
387.316	-0.38
387.907	-0.38
388.498	-0.38
389.089	-2.38
389.68	1.62
390.271	-2.38
390.862	-1.38
391.453	-0.38
392.044	-2.38
392.635	0.62
393.225	1.62
393.816	-3.38
394.407	-0.38
394.997	-2.38
395.588	5.62
396.178	1.62
396.768	-0.38
397.359	2.62
397.949	3.62
398.539	1.62
399.129	1.62
399.719	-3.38
400.309	2.62
400.899	1.62
401.489	-2.38
402.079	4.62
402.668	-1.38
403.258	3.62
403.848	-0.38
404.437	2.62
405.027	1.62
405.616	-2.38
406.206	0.62
406.795	-0.38
407.384	3.62
407.973	-0.38
408.563	2.62
409.152	0.62
409.741	3.62
410.33	0.62
410.919	5.62
411.508	0.62
412.096	4.62
412.685	8.62
413.274	5.62
413.862	6.62
414.451	3.62
415.039	9.62
415.628	5.62
416.216	10.62
416.805	9.62
417.393	10.62
417.981	6.62
418.569	5.62
419.157	15.62
419.745	16.62
420.333	10.62
420.921	14.62
421.509	12.62
422.097	16.62
422.685	13.62
423.272	14.62
423.86	18.62
424.447	19.62
425.035	19.62
425.622	23.62
426.21	18.62
426.797	20.62
427.384	29.62
427.972	30.62
428.559	27.62
429.146	35.62
429.733	36.62
430.32	42.62
430.907	45.62
431.494	51.62
432.08	52.62
432.667	47.62
433.254	64.62
433.84	66.62
434.427	72.62
435.013	76.62
435.6	87.62
436.186	90.62
436.772	98.62
437.359	106.62
437.945	110.62
438.531	122.62
439.117	127.62
439.703	152.62
440.289	154.62
440.875	166.62
441.461	174.62
442.047	195.62
442.632	204.62
443.218	225.62
443.804	243.62
444.389	264.62
444.975	288.62
445.56	305.62
446.145	318.62
446.731	356.62
447.316	383.62
447.901	400.62
448.486	433.62
449.071	476.62
449.656	487.62
450.241	524.62
450.826	566.62
451.411	612.62
451.996	644.62
452.58	707.62
453.165	748.62
453.75	826.62
454.334	891.62
454.919	943.62
455.503	1009.62
456.087	1121.62
456.672	1196.62
457.256	1282.62
457.84	1365.62
458.424	1461.62
459.008	1541.62
459.592	1653.62
460.176	1746.62
460.76	1830.62
461.344	1941.62
461.927	2035.62
462.511	2080.62
463.095	2167.62
463.678	2169.62
464.262	2211.62
464.845	2215.62
465.429	2209.62
466.012	2181.62
466.595	2184.62
467.178	2117.62
467.762	2083.62
468.345	1994.62
468.928	1883.62
469.511	1807.62
470.094	1699.62
470.676	1566.62
471.259	1477.62
471.842	1401.62
472.425	1307.62
473.007	1211.62
473.59	1132.62
474.172	1062.62
474.755	1004.62
475.337	916.62
475.919	863.62
476.502	836.62
477.084	765.62
477.666	741.62
478.248	689.62
478.83	664.62
479.412	622.62
479.994	583.62
480.576	574.62
481.157	533.62
481.739	507.62
482.321	478.62
482.902	467.62
483.484	426.62
484.065	400.62
484.647	387.62
485.228	367.62
485.809	332.62
486.391	317.62
486.972	286.62
487.553	279.62
488.134	257.62
488.715	258.62
489.296	222.62
489.877	214.62
490.458	198.62
491.038	185.62
491.619	181.62
492.2	169.62
492.78	164.62
493.361	147.62
493.941	140.62
494.522	138.62
495.102	130.62
495.682	131.62
496.262	134.62
496.843	116.62
497.423	118.62
498.003	118.62
498.583	112.62
499.163	103.62
499.742	99.62
500.322	99.62
500.902	91.62
501.482	97.62
502.061	92.62
502.641	82.62
503.22	88.62
503.8	79.62
504.379	80.62
504.958	78.62
505.538	81.62
506.117	76.62
506.696	74.62
507.275	81.62
507.854	80.62
508.433	82.62
509.012	78.62
509.591	77.62
510.169	89.62
510.748	85.62
511.327	82.62
511.905	89.62
512.484	91.62
513.062	97.62
513.641	104.62
514.219	100.62
514.797	101.62
515.375	118.62
515.954	111.62
516.532	134.62
517.11	138.62
517.688	148.62
518.266	153.62
518.843	143.62
519.421	169.62
519.999	165.62
520.577	188.62
521.154	195.62
521.732	202.62
522.309	215.62
522.887	229.62
523.464	234.62
524.041	236.62
524.619	251.62
525.196	259.62
525.773	267.62
526.35	271.62
526.927	283.62
527.504	291.62
528.081	284.62
528.658	290.62
529.235	304.62
529.811	297.62
530.388	305.62
530.964	306.62
531.541	312.62
532.117	314.62
532.694	313.62
533.27	311.62
533.846	311.62
534.423	318.62
534.999	320.62
535.575	310.62
536.151	306.62
536.727	307.62
537.303	293.62
537.879	310.62
538.455	297.62
539.03	301.62
539.606	294.62
540.182	302.62
540.757	307.62
541.333	306.62
541.908	289.62
542.483	283.62
543.059	290.62
543.634	281.62
544.209	284.62
544.784	266.62
545.359	288.62
545.934	278.62
546.509	270.62
547.084	264.62
547.659	267.62
548.234	272.62
548.808	266.62
549.383	256.62
549.958	258.62
550.532	261.62
551.107	252.62
551.681	251.62
552.255	252.62
552.83	252.62
553.404	253.62
553.978	250.62
554.552	255.62
555.126	253.62
555.7	260.62
556.274	261.62
556.848	247.62
557.422	251.62
557.995	257.62
558.569	259.62
559.143	255.62
559.716	263.62
560.29	256.62
560.863	274.62
561.437	268.62
562.01	266.62
562.583	286.62
563.156	291.62
563.729	291.62
564.302	294.62
564.875	290.62
565.448	291.62
566.021	284.62
566.594	299.62
567.167	309.62
567.74	306.62
568.312	304.62
568.885	305.62
569.457	321.62
570.03	312.62
570.602	328.62
571.174	325.62
571.747	327.62
572.319	324.62
572.891	320.62
573.463	318.62
574.035	321.62
574.607	321.62
575.179	315.62
575.751	319.62
576.323	320.62
576.894	322.62
577.466	325.62
578.038	332.62
578.609	314.62
579.181	322.62
579.752	312.62
580.323	317.62
580.895	320.62
581.466	331.62
582.037	322.62
582.608	325.62
583.179	324.62
583.75	311.62
584.321	331.62
584.892	321.62
585.463	327.62
586.033	327.62
586.604	328.62
587.175	352.62
587.745	342.62
588.316	332.62
588.886	336.62
589.457	347.62
590.027	332.62
590.597	338.62
591.167	337.62
591.737	340.62
592.308	318.62
592.878	339.62
593.447	330.62
594.017	334.62
594.587	331.62
595.157	328.62
595.727	313.62
596.296	325.62
596.866	323.62
597.435	322.62
598.005	321.62
598.574	313.62
599.143	306.62
599.713	304.62
600.282	312.62
600.851	301.62
601.42	300.62
601.989	301.62
602.558	301.62
603.127	298.62
603.696	297.62
604.265	298.62
604.833	306.62
605.402	292.62
605.971	298.62
606.539	295.62
607.108	286.62
607.676	285.62
608.244	296.62
608.813	297.62
609.381	284.62
609.949	289.62
610.517	291.62
611.085	290.62
611.653	286.62
612.221	297.62
612.789	289.62
613.357	288.62
613.924	289.62
614.492	280.62
615.06	288.62
615.627	288.62
616.195	275.62
616.762	278.62
617.329	287.62
617.897	276.62
618.464	275.62
619.031	284.62
619.598	265.62
620.165	279.62
620.732	262.62
621.299	269.62
621.866	270.62
622.433	275.62
623	274.62
623.566	278.62
624.133	286.62
624.7	270.62
625.266	267.62
625.832	262.62
626.399	253.62
626.965	260.62
627.531	272.62
628.098	257.62
628.664	261.62
629.23	247.62
629.796	261.62
630.362	249.62
630.928	258.62
631.493	253.62
632.059	249.62
632.625	246.62
633.19	248.62
633.756	249.62
634.322	242.62
634.887	245.62
635.452	245.62
636.018	241.62
636.583	232.62
637.148	233.62
637.713	235.62
638.278	232.62
638.843	224.62
639.408	231.62
639.973	230.62
640.538	233.62
641.103	224.62
641.667	221.62
642.232	223.62
642.797	230.62
643.361	212.62
643.926	210.62
644.49	213.62
645.054	213.62
645.619	223.62
646.183	212.62
646.747	211.62
647.311	209.62
647.875	199.62
648.439	197.62
649.003	199.62
649.567	194.62
650.131	203.62
650.694	197.62
651.258	190.62
651.822	186.62
652.385	189.62
652.949	183.62
653.512	187.62
654.075	180.62
654.639	188.62
655.202	184.62
655.765	175.62
656.328	178.62
656.891	173.62
657.454	184.62
658.017	168.62
658.58	164.62
659.143	181.62
659.705	162.62
660.268	152.62
660.83	173.62
661.393	166.62
661.955	162.62
662.518	153.62
663.08	150.62
663.643	152.62
664.205	153.62
664.767	158.62
665.329	156.62
665.891	154.62
666.453	145.62
667.015	149.62
667.577	151.62
668.139	146.62
668.7	141.62
669.262	148.62
669.824	142.62
670.385	152.62
670.947	139.62
671.508	141.62
672.069	137.62
672.631	135.62
673.192	136.62
673.753	138.62
674.314	132.62
674.875	134.62
675.436	138.62
675.997	139.62
676.558	133.62
677.119	133.62
677.679	131.62
678.24	120.62
678.801	137.62
679.361	130.62
679.922	130.62
680.482	123.62
681.042	125.62
681.603	122.62
682.163	122.62
682.723	115.62
683.283	113.62
683.843	119.62
684.403	122.62
684.963	117.62
685.523	115.62
686.083	110.62
686.642	109.62
687.202	107.62
687.762	113.62
688.321	108.62
688.881	110.62
689.44	106.62
690	109.62
690.559	100.62
691.118	108.62
691.677	101.62
692.236	102.62
692.795	97.62
693.354	101.62
693.913	86.62
694.472	90.62
695.031	92.62
695.59	100.62
696.148	93.62
696.707	91.62
697.265	90.62
697.824	92.62
698.382	94.62
698.941	83.62
699.499	78.62
700.057	78.62
700.615	85.62
701.173	88.62
701.731	77.62
702.289	78.62
702.847	77.62
703.405	80.62
703.963	75.62
704.521	80.62
705.078	78.62
705.636	78.62
706.194	66.62
706.751	72.62
707.308	65.62
707.866	67.62
708.423	69.62
708.98	63.62
709.537	70.62
710.095	67.62
710.652	67.62
711.209	58.62
711.765	66.62
712.322	63.62
712.879	66.62
713.436	63.62
713.992	61.62
714.549	61.62
715.106	56.62
715.662	57.62
716.218	57.62
716.775	58.62
717.331	57.62
717.887	56.62
718.443	51.62
719	53.62
719.556	48.62
720.112	51.62
720.667	49.62
721.223	47.62
721.779	51.62
722.335	48.62
722.89	44.62
723.446	46.62
724.002	46.62
724.557	42.62
725.112	39.62
725.668	43.62
726.223	44.62
726.778	37.62
727.333	45.62
727.888	46.62
728.443	41.62
728.998	36.62
729.553	45.62
730.108	46.62
730.663	42.62
731.218	37.62
731.772	39.62
732.327	42.62
732.881	36.62
733.436	36.62
733.99	38.62
734.545	36.62
735.099	33.62
735.653	35.62
736.207	33.62
736.761	34.62
737.315	35.62
737.869	34.62
738.423	32.62
738.977	35.62
739.531	35.62
740.084	33.62
740.638	34.62
741.192	36.62
741.745	29.62
742.299	34.62
742.852	31.62
743.405	25.62
743.959	31.62
744.512	31.62
745.065	25.62
745.618	33.62
746.171	31.62
746.724	29.62
747.277	30.62
747.83	27.62
748.382	26.62
748.935	27.62
749.488	26.62
750.04	26.62
750.593	25.62
751.145	19.62
751.698	28.62
752.25	23.62
752.802	24.62
753.354	24.62
753.906	23.62
754.458	24.62
755.01	23.62
755.562	18.62
756.114	24.62
756.666	21.62
757.218	19.62
757.769	17.62
758.321	22.62
758.873	22.62
759.424	21.62
759.975	22.62
760.527	18.62
761.078	15.62
761.629	19.62
762.181	18.62
762.732	12.62
763.283	20.62
763.834	16.62
764.385	15.62
764.935	14.62
765.486	15.62
766.037	15.62
766.588	14.62
767.138	20.62
767.689	11.62
768.239	16.62
768.79	10.62
769.34	16.62
769.89	11.62
770.44	18.62
770.991	14.62
771.541	15.62
772.091	15.62
772.641	12.62
773.191	13.62
773.74	10.62
774.29	12.62
774.84	17.62
775.39	14.62
775.939	17.62
776.489	18.62
777.038	10.62
777.588	16.62
778.137	15.62
778.686	15.62
779.235	19.62
779.784	13.62
780.334	13.62
780.883	18.62
781.431	10.62
781.98	15.62
782.529	13.62
783.078	10.62
783.627	12.62
784.175	12.62
784.724	15.62
785.272	10.62
785.821	10.62
786.369	12.62
786.917	9.62
787.466	12.62
788.014	10.62
788.562	9.62
789.11	13.62
789.658	9.62
790.206	8.62
790.754	10.62
791.302	9.62
791.849	8.62
792.397	7.62
792.945	12.62
793.492	7.62
794.04	6.62
794.587	8.62
795.134	9.62
795.682	9.62
796.229	10.62
796.776	1.62
797.323	11.62
797.87	8.62
798.417	11.62
798.964	5.62
799.511	6.62
800.058	6.62
800.604	9.62
801.151	5.62
801.698	6.62
802.244	7.62
802.791	3.62
803.337	5.62
803.883	8.62
804.43	5.62
804.976	4.62
805.522	10.62
806.068	5.62
806.614	2.62
807.16	12.62
807.706	7.62
808.252	4.62
808.797	5.62
809.343	6.62
809.889	9.62
810.434	8.62
810.98	3.62
811.525	3.62
812.071	3.62
812.616	2.62
813.161	5.62
813.706	8.62
814.252	2.62
814.797	6.62
815.342	0.62
815.886	5.62
816.431	3.62
816.976	9.62
817.521	0.62
818.066	1.62
818.61	7.62
819.155	3.62
819.699	3.62
820.244	7.62
820.788	8.62
821.332	4.62
821.876	1.62
822.421	3.62
822.965	3.62
823.509	4.62
824.053	2.62
824.597	4.62
825.14	2.62
825.684	2.62
826.228	1.62
826.771	7.62
827.315	4.62
827.859	5.62
828.402	3.62
828.945	0.62
829.489	3.62
830.032	3.62
830.575	2.62
831.118	3.62
831.661	2.62
832.204	1.62
832.747	2.62
833.29	3.62
833.833	2.62
834.376	1.62
834.918	1.62
835.461	2.62
836.004	1.62
836.546	0.62
837.088	-4.38
837.631	2.62
838.173	2.62
838.715	0.62
839.257	-0.38
839.8	3.62
840.342	-1.38
840.884	4.62
841.425	4.62
841.967	2.62
842.509	2.62
843.051	0.62
843.592	2.62
844.134	3.62
844.676	1.62
845.217	1.62
845.758	-0.38
846.3	-1.38
846.841	-0.38
847.382	-1.38
847.923	2.62
848.464	1.62
849.005	-0.38
849.546	1.62
850.087	1.62
850.628	-0.38
851.169	-1.38
851.709	-2.38
852.25	2.62
852.791	2.62
853.331	-0.38
853.871	2.62
854.412	1.62
854.952	2.62
855.492	1.62
856.033	0.62
856.573	1.62
857.113	3.62
857.653	0.62
858.193	1.62
858.732	-0.38
859.272	-1.38
859.812	2.62
860.352	3.62
860.891	2.62
861.431	2.62
861.97	4.62
862.509	0.62
863.049	-0.38
863.588	3.62
864.127	1.62
864.666	-1.38
865.205	-1.38
865.744	1.62
866.283	-2.38
866.822	1.62
867.361	2.62
867.9	0.62
868.438	-2.38
868.977	2.62
869.516	1.62
870.054	1.62
870.593	1.62
871.131	0.62
871.669	4.62
872.207	-2.38
872.746	-3.38
873.284	-2.38
873.822	-1.38
874.36	1.62
874.898	-0.38
875.435	1.62
875.973	2.62
876.511	-0.38
877.048	-0.38
877.586	-0.38
878.124	-1.38
878.661	-0.38
879.198	1.62
879.736	2.62
880.273	0.62
880.81	0.62
881.347	-1.38
881.884	1.62
882.421	1.62
882.958	-2.38
883.495	-0.38
884.032	2.62
884.569	2.62
885.105	1.62
885.642	3.62
886.178	-0.38
886.715	5.62
887.251	-1.38
887.788	-1.38
888.324	0.62
888.86	-2.38
889.396	1.62
889.932	-2.38
890.468	1.62
891.004	-1.38
891.54	-1.38
892.076	-1.38
892.612	1.62
893.147	-2.38
893.683	1.62
894.219	-0.38
894.754	2.62
895.29	3.62
895.825	-0.38
896.36	-2.38
896.896	0.62
897.431	0.62
897.966	-4.38
898.501	1.62
899.036	5.62
899.571	0.62
900.106	1.62
900.64	2.62
901.175	-2.38
901.71	0.62
902.244	0.62
902.779	-4.38
903.313	-2.38
903.848	-5.38
904.382	-2.38
904.916	0.62
905.45	-3.38
905.985	-0.38
906.519	-0.38
907.053	-3.38
907.587	-1.38
908.12	-0.38
908.654	0.62
909.188	-3.38
909.722	-1.38
910.255	-1.38
910.789	1.62
911.322	-2.38
911.856	-0.38
912.389	1.62
912.922	-0.38
913.456	-0.38
913.989	1.62
914.522	-0.38
915.055	1.62
915.588	0.62
916.121	-5.38
916.653	0.62
917.186	1.62
917.719	0.62
918.252	3.62
918.784	-1.38
919.317	0.62
919.849	1.62
920.381	3.62
920.914	-1.38
921.446	0.62
921.978	-0.38
922.51	-3.38
923.042	-1.38
923.574	-3.38
924.106	0.62
924.638	-3.38
925.17	0.62
925.701	-6.38
926.233	-0.38
926.765	1.62
927.296	-1.38
927.828	-4.38
928.359	-3.38
928.89	-1.38
929.422	0.62
929.953	-3.38
930.484	-0.38
931.015	1.62
931.546	2.62
932.077	-4.38
932.608	1.62
933.138	-0.38
933.669	-2.38
934.2	-5.38
934.73	-3.38
935.261	-0.38
