Data from LOOPyPMA-1_QEP046991__12__18-11-21-757.txt Node

Date: Sun May 11 18:11:21 CEST 2025
User: superuser
Spectrometer: QEP04699
Trigger mode: 4
Integration Time (sec): 1.000000E-1
Scans to average: 1
Electric dark correction enabled: true
Nonlinearity correction enabled: false
Boxcar width: 0
XAxis mode: Wavelengths
Number of Pixels in Spectrum: 1044
>>>>>Begin Spectral Data<<<<<
347.57	10
348.165	0
348.76	-3
349.355	-4
349.95	0
350.545	-4
351.14	3
351.735	-2
352.33	1
352.924	2
353.519	3
354.114	2
354.708	-2
355.303	3
355.897	2
356.491	2
357.086	-3
357.68	0
358.274	4
358.868	1
359.462	2
360.056	2
360.65	3
361.244	5
361.838	5
362.431	0
363.025	2
363.619	4
364.212	0
364.806	4
365.399	3
365.993	4
366.586	1
367.179	3
367.772	0
368.366	2
368.959	7
369.552	4
370.145	2
370.738	2
371.331	2
371.923	4
372.516	5
373.109	1
373.701	2
374.294	3
374.887	0
375.479	0
376.071	5
376.664	2
377.256	3
377.848	3
378.44	-2
379.033	3
379.625	-1
380.217	4
380.808	3
381.4	3
381.992	1
382.584	2
383.176	4
383.767	0
384.359	4
384.95	3
385.542	-3
386.133	3
386.725	5
387.316	2
387.907	-2
388.498	4
389.089	0
389.68	6
390.271	2
390.862	2
391.453	6
392.044	5
392.635	5
393.225	6
393.816	2
394.407	4
394.997	2
395.588	4
396.178	5
396.768	6
397.359	3
397.949	3
398.539	4
399.129	5
399.719	6
400.309	3
400.899	1
401.489	1
402.079	3
402.668	6
403.258	5
403.848	4
404.437	6
405.027	3
405.616	4
406.206	4
406.795	2
407.384	7
407.973	7
408.563	7
409.152	5
409.741	4
410.33	7
410.919	6
411.508	9
412.096	4
412.685	7
413.274	11
413.862	3
414.451	10
415.039	8
415.628	12
416.216	8
416.805	7
417.393	10
417.981	9
418.569	18
419.157	14
419.745	15
420.333	12
420.921	17
421.509	16
422.097	18
422.685	18
423.272	21
423.86	23
424.447	28
425.035	23
425.622	27
426.21	29
426.797	30
427.384	34
427.972	33
428.559	37
429.146	34
429.733	39
430.32	43
430.907	51
431.494	53
432.08	53
432.667	60
433.254	64
433.84	68
434.427	69
435.013	82
435.6	85
436.186	91
436.772	107
437.359	104
437.945	122
438.531	126
439.117	141
439.703	149
440.289	165
440.875	169
441.461	194
442.047	202
442.632	218
443.218	239
443.804	255
444.389	270
444.975	287
445.56	313
446.145	335
446.731	346
447.316	379
447.901	416
448.486	423
449.071	477
449.656	484
450.241	517
450.826	568
451.411	621
451.996	655
452.58	694
453.165	763
453.75	820
454.334	875
454.919	951
455.503	1034
456.087	1086
456.672	1182
457.256	1271
457.84	1351
458.424	1456
459.008	1558
459.592	1678
460.176	1753
460.76	1824
461.344	1904
461.927	1997
462.511	2102
463.095	2175
463.678	2165
464.262	2201
464.845	2229
465.429	2192
466.012	2170
466.595	2170
467.178	2125
467.762	2035
468.345	1967
468.928	1892
469.511	1796
470.094	1695
470.676	1596
471.259	1492
471.842	1397
472.425	1311
473.007	1257
473.59	1125
474.172	1057
474.755	991
475.337	929
475.919	869
476.502	826
477.084	772
477.666	755
478.248	685
478.83	689
479.412	631
479.994	583
480.576	558
481.157	536
481.739	496
482.321	500
482.902	467
483.484	433
484.065	401
484.647	382
485.228	364
485.809	347
486.391	332
486.972	297
487.553	279
488.134	273
488.715	247
489.296	232
489.877	215
490.458	202
491.038	198
491.619	163
492.2	179
492.78	159
493.361	157
493.941	148
494.522	135
495.102	130
495.682	119
496.262	118
496.843	125
497.423	118
498.003	110
498.583	112
499.163	107
499.742	104
500.322	95
500.902	99
501.482	93
502.061	93
502.641	93
503.22	89
503.8	97
504.379	89
504.958	80
505.538	83
506.117	87
506.696	77
507.275	86
507.854	82
508.433	87
509.012	84
509.591	86
510.169	86
510.748	83
511.327	95
511.905	90
512.484	92
513.062	101
513.641	108
514.219	105
514.797	113
515.375	117
515.954	129
516.532	130
517.11	139
517.688	145
518.266	162
518.843	165
519.421	173
519.999	184
520.577	201
521.154	202
521.732	204
522.309	219
522.887	233
523.464	237
524.041	247
524.619	263
525.196	259
525.773	271
526.35	282
526.927	292
527.504	292
528.081	288
528.658	302
529.235	299
529.811	306
530.388	319
530.964	317
531.541	309
532.117	311
532.694	317
533.27	320
533.846	318
534.423	317
534.999	300
535.575	306
536.151	316
536.727	308
537.303	302
537.879	310
538.455	314
539.03	295
539.606	297
540.182	298
540.757	301
541.333	292
541.908	294
542.483	295
543.059	299
543.634	277
544.209	291
544.784	275
545.359	281
545.934	266
546.509	281
547.084	272
547.659	271
548.234	270
548.808	267
549.383	265
549.958	251
550.532	260
551.107	261
551.681	270
552.255	261
552.83	245
553.404	249
553.978	255
554.552	245
555.126	253
555.7	249
556.274	254
556.848	254
557.422	260
557.995	261
558.569	255
559.143	261
559.716	272
560.29	263
560.863	273
561.437	272
562.01	276
562.583	268
563.156	287
563.729	283
564.302	305
564.875	288
565.448	300
566.021	298
566.594	298
567.167	310
567.74	314
568.312	314
568.885	309
569.457	315
570.03	321
570.602	335
571.174	339
571.747	325
572.319	336
572.891	326
573.463	322
574.035	327
574.607	316
575.179	323
575.751	313
576.323	328
576.894	322
577.466	321
578.038	327
578.609	323
579.181	322
579.752	317
580.323	319
580.895	323
581.466	332
582.037	325
582.608	314
583.179	331
583.75	332
584.321	336
584.892	328
585.463	320
586.033	327
586.604	345
587.175	341
587.745	347
588.316	347
588.886	359
589.457	330
590.027	352
590.597	341
591.167	334
591.737	339
592.308	325
592.878	333
593.447	334
594.017	323
594.587	327
595.157	323
595.727	311
596.296	325
596.866	313
597.435	325
598.005	313
598.574	309
599.143	319
599.713	310
600.282	297
600.851	307
601.42	304
601.989	294
602.558	299
603.127	306
603.696	308
604.265	300
604.833	301
605.402	308
605.971	317
606.539	300
607.108	296
607.676	299
608.244	296
608.813	291
609.381	289
609.949	301
610.517	290
611.085	285
611.653	289
612.221	291
612.789	285
613.357	297
613.924	288
614.492	280
615.06	287
615.627	286
616.195	279
616.762	279
617.329	271
617.897	289
618.464	291
619.031	286
619.598	270
620.165	276
620.732	279
621.299	275
621.866	279
622.433	270
623	275
623.566	272
624.133	277
624.7	270
625.266	276
625.832	275
626.399	264
626.965	265
627.531	269
628.098	269
628.664	263
629.23	258
629.796	255
630.362	261
630.928	253
631.493	252
632.059	254
632.625	250
633.19	255
633.756	246
634.322	248
634.887	240
635.452	249
636.018	253
636.583	232
637.148	236
637.713	241
638.278	248
638.843	232
639.408	226
639.973	235
640.538	235
641.103	232
641.667	228
642.232	234
642.797	228
643.361	214
643.926	217
644.49	221
645.054	214
645.619	219
646.183	217
646.747	212
647.311	209
647.875	213
648.439	210
649.003	209
649.567	201
650.131	207
650.694	200
651.258	200
651.822	197
652.385	198
652.949	197
653.512	188
654.075	197
654.639	182
655.202	189
655.765	185
656.328	177
656.891	181
657.454	178
658.017	178
658.58	186
659.143	177
659.705	183
660.268	176
660.83	161
661.393	161
661.955	162
662.518	159
663.08	158
663.643	160
664.205	163
664.767	161
665.329	155
665.891	153
666.453	154
667.015	151
667.577	148
668.139	153
668.7	139
669.262	151
669.824	150
670.385	138
670.947	138
671.508	147
672.069	140
672.631	138
673.192	131
673.753	147
674.314	138
674.875	133
675.436	137
675.997	132
676.558	135
677.119	133
677.679	134
678.24	127
678.801	126
679.361	125
679.922	129
680.482	130
681.042	132
681.603	125
682.163	130
682.723	125
683.283	122
683.843	120
684.403	123
684.963	119
685.523	114
686.083	121
686.642	110
687.202	123
687.762	114
688.321	107
688.881	106
689.44	108
690	108
690.559	103
691.118	99
691.677	98
692.236	101
692.795	103
693.354	103
693.913	97
694.472	94
695.031	92
695.59	96
696.148	89
696.707	94
697.265	86
697.824	91
698.382	83
698.941	85
699.499	88
700.057	96
700.615	82
701.173	79
701.731	82
702.289	84
702.847	72
703.405	83
703.963	72
704.521	76
705.078	79
705.636	82
706.194	79
706.751	75
707.308	76
707.866	75
708.423	67
708.98	68
709.537	65
710.095	66
710.652	70
711.209	68
711.765	71
712.322	67
712.879	66
713.436	64
713.992	63
714.549	64
715.106	64
715.662	61
716.218	59
716.775	62
717.331	58
717.887	58
718.443	57
719	59
719.556	54
720.112	52
720.667	56
721.223	54
721.779	48
722.335	47
722.89	52
723.446	51
724.002	48
724.557	43
725.112	46
725.668	55
726.223	45
726.778	47
727.333	40
727.888	45
728.443	47
728.998	46
729.553	42
730.108	49
730.663	43
731.218	42
731.772	42
732.327	42
732.881	35
733.436	40
733.99	38
734.545	39
735.099	38
735.653	37
736.207	37
736.761	38
737.315	37
737.869	40
738.423	33
738.977	33
739.531	32
740.084	31
740.638	38
741.192	29
741.745	35
742.299	30
742.852	33
743.405	33
743.959	33
744.512	34
745.065	36
745.618	30
746.171	30
746.724	29
747.277	36
747.83	29
748.382	21
748.935	28
749.488	28
750.04	27
750.593	25
751.145	31
751.698	27
752.25	28
752.802	25
753.354	25
753.906	30
754.458	28
755.01	21
755.562	27
756.114	22
756.666	20
757.218	23
757.769	20
758.321	23
758.873	24
759.424	21
759.975	22
760.527	21
761.078	25
761.629	23
762.181	22
762.732	20
763.283	17
763.834	17
764.385	19
764.935	17
765.486	22
766.037	19
766.588	18
767.138	16
767.689	18
768.239	16
768.79	18
769.34	17
769.89	18
770.44	15
770.991	22
771.541	20
772.091	18
772.641	13
773.191	20
773.74	19
774.29	19
774.84	20
775.39	15
775.939	19
776.489	14
777.038	15
777.588	19
778.137	15
778.686	17
779.235	14
779.784	15
780.334	16
780.883	19
781.431	16
781.98	16
782.529	13
783.078	18
783.627	13
784.175	16
784.724	19
785.272	15
785.821	14
786.369	18
786.917	16
787.466	15
788.014	14
788.562	16
789.11	13
789.658	14
790.206	12
790.754	12
791.302	9
791.849	12
792.397	11
792.945	14
793.492	14
794.04	9
794.587	10
795.134	10
795.682	10
796.229	10
796.776	10
797.323	13
797.87	10
798.417	12
798.964	10
799.511	8
800.058	11
800.604	14
801.151	10
801.698	7
802.244	7
802.791	9
803.337	10
803.883	11
804.43	9
804.976	10
805.522	8
806.068	10
806.614	5
807.16	7
807.706	5
808.252	12
808.797	11
809.343	6
809.889	8
810.434	14
810.98	7
811.525	8
812.071	8
812.616	7
813.161	4
813.706	8
814.252	7
814.797	8
815.342	11
815.886	9
816.431	6
816.976	4
817.521	6
818.066	6
818.61	5
819.155	6
819.699	8
820.244	6
820.788	6
821.332	9
821.876	3
822.421	3
822.965	6
823.509	6
824.053	8
824.597	7
825.14	6
825.684	4
826.228	7
826.771	5
827.315	1
827.859	3
828.402	9
828.945	8
829.489	8
830.032	4
830.575	2
831.118	10
831.661	2
832.204	6
832.747	4
833.29	6
833.833	8
834.376	6
834.918	2
835.461	6
836.004	7
836.546	4
837.088	5
837.631	7
838.173	4
838.715	6
839.257	4
839.8	9
840.342	3
840.884	1
841.425	5
841.967	0
842.509	5
843.051	2
843.592	4
844.134	2
844.676	5
845.217	2
845.758	3
846.3	4
846.841	3
847.382	5
847.923	4
848.464	9
849.005	2
849.546	4
850.087	2
850.628	2
851.169	14
851.709	2
852.25	-1
852.791	2
853.331	-2
853.871	4
854.412	3
854.952	5
855.492	3
856.033	2
856.573	4
857.113	4
857.653	7
858.193	3
858.732	5
859.272	7
859.812	2
860.352	-4
860.891	2
861.431	4
861.97	3
862.509	4
863.049	1
863.588	8
864.127	-1
864.666	1
865.205	6
865.744	8
866.283	8
866.822	2
867.361	6
867.9	4
868.438	4
868.977	3
869.516	2
870.054	-1
870.593	3
871.131	4
871.669	4
872.207	2
872.746	2
873.284	1
873.822	0
874.36	1
874.898	6
875.435	2
875.973	5
876.511	3
877.048	2
877.586	0
878.124	2
878.661	4
879.198	4
879.736	0
880.273	2
880.81	3
881.347	7
881.884	-1
882.421	0
882.958	4
883.495	3
884.032	4
884.569	3
885.105	4
885.642	5
886.178	-1
886.715	2
887.251	-1
887.788	-1
888.324	-1
888.86	4
889.396	1
889.932	-4
890.468	4
891.004	1
891.54	2
892.076	3
892.612	1
893.147	2
893.683	0
894.219	-1
894.754	2
895.29	1
895.825	0
896.36	2
896.896	5
897.431	3
897.966	3
898.501	2
899.036	5
899.571	2
900.106	2
900.64	4
901.175	-3
901.71	2
902.244	3
902.779	-1
903.313	5
903.848	3
904.382	2
904.916	3
905.45	4
905.985	-1
906.519	4
907.053	0
907.587	4
908.12	4
908.654	-1
909.188	5
909.722	7
910.255	2
910.789	-1
911.322	6
911.856	3
912.389	-1
912.922	0
913.456	2
913.989	1
914.522	4
915.055	-2
915.588	0
916.121	2
916.653	4
917.186	5
917.719	-1
918.252	3
918.784	4
919.317	4
919.849	2
920.381	2
920.914	4
921.446	4
921.978	1
922.51	3
923.042	0
923.574	0
924.106	3
924.638	3
925.17	5
925.701	1
926.233	2
926.765	4
927.296	5
927.828	4
928.359	2
928.89	2
929.422	0
929.953	2
930.484	3
931.015	3
931.546	4
932.077	1
932.608	0
933.138	2
933.669	3
934.2	-1
934.73	-3
935.261	-2
