Data from LOOPyPMA-1_QEP046991__8__18-11-17-757.txt Node

Date: Sun May 11 18:11:17 CEST 2025
User: superuser
Spectrometer: QEP04699
Trigger mode: 4
Integration Time (sec): 1.000000E-1
Scans to average: 1
Electric dark correction enabled: true
Nonlinearity correction enabled: false
Boxcar width: 0
XAxis mode: Wavelengths
Number of Pixels in Spectrum: 1044
>>>>>Begin Spectral Data<<<<<
347.57	13.12
348.165	1.12
348.76	-2.88
349.355	-0.88
349.95	-5.88
350.545	-1.88
351.14	-2.88
351.735	-2.88
352.33	-1.88
352.924	1.12
353.519	-0.88
354.114	-0.88
354.708	-1.88
355.303	2.12
355.897	-4.88
356.491	-0.88
357.086	3.12
357.68	2.12
358.274	1.12
358.868	-0.88
359.462	1.12
360.056	0.12
360.65	-0.88
361.244	-1.88
361.838	-1.88
362.431	-0.88
363.025	-2.88
363.619	-0.88
364.212	0.12
364.806	3.12
365.399	2.12
365.993	-0.88
366.586	1.12
367.179	-0.88
367.772	-3.88
368.366	1.12
368.959	-0.88
369.552	0.12
370.145	2.12
370.738	-0.88
371.331	4.12
371.923	2.12
372.516	2.12
373.109	-0.88
373.701	4.12
374.294	-0.88
374.887	1.12
375.479	0.12
376.071	1.12
376.664	3.12
377.256	0.12
377.848	1.12
378.44	3.12
379.033	1.12
379.625	-0.88
380.217	-0.88
380.808	-0.88
381.4	1.12
381.992	5.12
382.584	-0.88
383.176	0.12
383.767	-1.88
384.359	1.12
384.95	-1.88
385.542	-0.88
386.133	1.12
386.725	2.12
387.316	-1.88
387.907	3.12
388.498	1.12
389.089	2.12
389.68	2.12
390.271	1.12
390.862	2.12
391.453	1.12
392.044	2.12
392.635	-1.88
393.225	3.12
393.816	4.12
394.407	1.12
394.997	1.12
395.588	1.12
396.178	-0.88
396.768	-1.88
397.359	0.12
397.949	0.12
398.539	2.12
399.129	1.12
399.719	4.12
400.309	3.12
400.899	3.12
401.489	2.12
402.079	4.12
402.668	2.12
403.258	2.12
403.848	1.12
404.437	3.12
405.027	3.12
405.616	4.12
406.206	5.12
406.795	1.12
407.384	5.12
407.973	5.12
408.563	2.12
409.152	2.12
409.741	3.12
410.33	5.12
410.919	3.12
411.508	5.12
412.096	4.12
412.685	4.12
413.274	6.12
413.862	4.12
414.451	2.12
415.039	3.12
415.628	13.12
416.216	6.12
416.805	11.12
417.393	12.12
417.981	12.12
418.569	8.12
419.157	12.12
419.745	11.12
420.333	15.12
420.921	14.12
421.509	14.12
422.097	15.12
422.685	17.12
423.272	18.12
423.86	17.12
424.447	19.12
425.035	25.12
425.622	24.12
426.21	28.12
426.797	25.12
427.384	31.12
427.972	27.12
428.559	36.12
429.146	38.12
429.733	39.12
430.32	47.12
430.907	43.12
431.494	48.12
432.08	50.12
432.667	57.12
433.254	68.12
433.84	67.12
434.427	71.12
435.013	75.12
435.6	83.12
436.186	96.12
436.772	94.12
437.359	106.12
437.945	110.12
438.531	117.12
439.117	139.12
439.703	145.12
440.289	157.12
440.875	168.12
441.461	182.12
442.047	208.12
442.632	216.12
443.218	235.12
443.804	258.12
444.389	272.12
444.975	293.12
445.56	298.12
446.145	343.12
446.731	353.12
447.316	380.12
447.901	415.12
448.486	435.12
449.071	454.12
449.656	503.12
450.241	520.12
450.826	569.12
451.411	603.12
451.996	653.12
452.58	692.12
453.165	762.12
453.75	822.12
454.334	872.12
454.919	935.12
455.503	1022.12
456.087	1091.12
456.672	1180.12
457.256	1277.12
457.84	1355.12
458.424	1454.12
459.008	1532.12
459.592	1642.12
460.176	1759.12
460.76	1820.12
461.344	1919.12
461.927	2004.12
462.511	2081.12
463.095	2139.12
463.678	2183.12
464.262	2210.12
464.845	2254.12
465.429	2208.12
466.012	2217.12
466.595	2121.12
467.178	2124.12
467.762	2045.12
468.345	1975.12
468.928	1871.12
469.511	1792.12
470.094	1696.12
470.676	1598.12
471.259	1480.12
471.842	1396.12
472.425	1312.12
473.007	1244.12
473.59	1128.12
474.172	1085.12
474.755	975.12
475.337	942.12
475.919	874.12
476.502	821.12
477.084	762.12
477.666	739.12
478.248	680.12
478.83	663.12
479.412	608.12
479.994	583.12
480.576	557.12
481.157	537.12
481.739	499.12
482.321	486.12
482.902	453.12
483.484	436.12
484.065	398.12
484.647	388.12
485.228	352.12
485.809	334.12
486.391	317.12
486.972	309.12
487.553	279.12
488.134	251.12
488.715	240.12
489.296	233.12
489.877	204.12
490.458	204.12
491.038	187.12
491.619	184.12
492.2	169.12
492.78	160.12
493.361	154.12
493.941	135.12
494.522	147.12
495.102	141.12
495.682	131.12
496.262	122.12
496.843	113.12
497.423	121.12
498.003	104.12
498.583	109.12
499.163	107.12
499.742	104.12
500.322	98.12
500.902	97.12
501.482	93.12
502.061	87.12
502.641	90.12
503.22	88.12
503.8	82.12
504.379	83.12
504.958	87.12
505.538	82.12
506.117	78.12
506.696	84.12
507.275	83.12
507.854	82.12
508.433	83.12
509.012	79.12
509.591	77.12
510.169	80.12
510.748	82.12
511.327	87.12
511.905	90.12
512.484	94.12
513.062	94.12
513.641	103.12
514.219	105.12
514.797	101.12
515.375	124.12
515.954	125.12
516.532	128.12
517.11	137.12
517.688	152.12
518.266	157.12
518.843	159.12
519.421	165.12
519.999	175.12
520.577	191.12
521.154	198.12
521.732	204.12
522.309	214.12
522.887	222.12
523.464	239.12
524.041	243.12
524.619	247.12
525.196	253.12
525.773	264.12
526.35	274.12
526.927	282.12
527.504	283.12
528.081	294.12
528.658	285.12
529.235	302.12
529.811	286.12
530.388	314.12
530.964	308.12
531.541	320.12
532.117	312.12
532.694	308.12
533.27	322.12
533.846	318.12
534.423	313.12
534.999	309.12
535.575	323.12
536.151	309.12
536.727	310.12
537.303	315.12
537.879	299.12
538.455	296.12
539.03	300.12
539.606	301.12
540.182	303.12
540.757	298.12
541.333	287.12
541.908	297.12
542.483	277.12
543.059	285.12
543.634	289.12
544.209	285.12
544.784	269.12
545.359	283.12
545.934	285.12
546.509	267.12
547.084	261.12
547.659	264.12
548.234	271.12
548.808	267.12
549.383	255.12
549.958	263.12
550.532	262.12
551.107	253.12
551.681	271.12
552.255	248.12
552.83	259.12
553.404	248.12
553.978	247.12
554.552	255.12
555.126	259.12
555.7	248.12
556.274	247.12
556.848	244.12
557.422	257.12
557.995	254.12
558.569	268.12
559.143	265.12
559.716	257.12
560.29	277.12
560.863	265.12
561.437	272.12
562.01	272.12
562.583	273.12
563.156	292.12
563.729	295.12
564.302	281.12
564.875	289.12
565.448	298.12
566.021	306.12
566.594	293.12
567.167	296.12
567.74	299.12
568.312	313.12
568.885	312.12
569.457	309.12
570.03	310.12
570.602	315.12
571.174	323.12
571.747	316.12
572.319	336.12
572.891	321.12
573.463	322.12
574.035	325.12
574.607	315.12
575.179	330.12
575.751	320.12
576.323	303.12
576.894	311.12
577.466	321.12
578.038	309.12
578.609	337.12
579.181	319.12
579.752	314.12
580.323	326.12
580.895	332.12
581.466	327.12
582.037	321.12
582.608	327.12
583.179	316.12
583.75	326.12
584.321	317.12
584.892	342.12
585.463	327.12
586.033	334.12
586.604	334.12
587.175	329.12
587.745	335.12
588.316	342.12
588.886	344.12
589.457	335.12
590.027	328.12
590.597	333.12
591.167	333.12
591.737	325.12
592.308	342.12
592.878	341.12
593.447	325.12
594.017	324.12
594.587	321.12
595.157	326.12
595.727	325.12
596.296	318.12
596.866	320.12
597.435	305.12
598.005	320.12
598.574	314.12
599.143	309.12
599.713	312.12
600.282	311.12
600.851	309.12
601.42	286.12
601.989	305.12
602.558	300.12
603.127	300.12
603.696	303.12
604.265	298.12
604.833	307.12
605.402	294.12
605.971	282.12
606.539	292.12
607.108	285.12
607.676	298.12
608.244	299.12
608.813	284.12
609.381	287.12
609.949	302.12
610.517	307.12
611.085	290.12
611.653	294.12
612.221	289.12
612.789	293.12
613.357	286.12
613.924	290.12
614.492	292.12
615.06	280.12
615.627	285.12
616.195	267.12
616.762	277.12
617.329	274.12
617.897	280.12
618.464	269.12
619.031	274.12
619.598	285.12
620.165	275.12
620.732	273.12
621.299	287.12
621.866	277.12
622.433	271.12
623	277.12
623.566	264.12
624.133	260.12
624.7	270.12
625.266	262.12
625.832	268.12
626.399	260.12
626.965	269.12
627.531	274.12
628.098	269.12
628.664	271.12
629.23	256.12
629.796	266.12
630.362	265.12
630.928	264.12
631.493	251.12
632.059	244.12
632.625	255.12
633.19	251.12
633.756	251.12
634.322	240.12
634.887	236.12
635.452	237.12
636.018	251.12
636.583	250.12
637.148	241.12
637.713	240.12
638.278	242.12
638.843	228.12
639.408	233.12
639.973	225.12
640.538	231.12
641.103	220.12
641.667	228.12
642.232	223.12
642.797	215.12
643.361	227.12
643.926	219.12
644.49	219.12
645.054	230.12
645.619	219.12
646.183	206.12
646.747	198.12
647.311	205.12
647.875	217.12
648.439	210.12
649.003	201.12
649.567	192.12
650.131	198.12
650.694	183.12
651.258	204.12
651.822	202.12
652.385	194.12
652.949	187.12
653.512	196.12
654.075	183.12
654.639	183.12
655.202	179.12
655.765	179.12
656.328	174.12
656.891	180.12
657.454	178.12
658.017	166.12
658.58	167.12
659.143	175.12
659.705	170.12
660.268	176.12
660.83	166.12
661.393	171.12
661.955	160.12
662.518	166.12
663.08	161.12
663.643	161.12
664.205	151.12
664.767	153.12
665.329	155.12
665.891	150.12
666.453	156.12
667.015	150.12
667.577	146.12
668.139	161.12
668.7	150.12
669.262	146.12
669.824	133.12
670.385	142.12
670.947	140.12
671.508	145.12
672.069	146.12
672.631	138.12
673.192	137.12
673.753	130.12
674.314	135.12
674.875	131.12
675.436	134.12
675.997	131.12
676.558	135.12
677.119	123.12
677.679	128.12
678.24	128.12
678.801	123.12
679.361	126.12
679.922	124.12
680.482	128.12
681.042	131.12
681.603	125.12
682.163	117.12
682.723	114.12
683.283	130.12
683.843	119.12
684.403	119.12
684.963	110.12
685.523	111.12
686.083	108.12
686.642	121.12
687.202	106.12
687.762	112.12
688.321	110.12
688.881	107.12
689.44	99.12
690	105.12
690.559	93.12
691.118	100.12
691.677	95.12
692.236	102.12
692.795	101.12
693.354	93.12
693.913	89.12
694.472	94.12
695.031	95.12
695.59	86.12
696.148	93.12
696.707	92.12
697.265	85.12
697.824	83.12
698.382	83.12
698.941	91.12
699.499	83.12
700.057	82.12
700.615	78.12
701.173	85.12
701.731	77.12
702.289	79.12
702.847	75.12
703.405	73.12
703.963	79.12
704.521	74.12
705.078	76.12
705.636	71.12
706.194	62.12
706.751	69.12
707.308	78.12
707.866	69.12
708.423	74.12
708.98	64.12
709.537	66.12
710.095	64.12
710.652	64.12
711.209	63.12
711.765	61.12
712.322	67.12
712.879	57.12
713.436	61.12
713.992	59.12
714.549	56.12
715.106	53.12
715.662	63.12
716.218	58.12
716.775	51.12
717.331	61.12
717.887	57.12
718.443	58.12
719	53.12
719.556	49.12
720.112	50.12
720.667	54.12
721.223	49.12
721.779	46.12
722.335	48.12
722.89	55.12
723.446	44.12
724.002	49.12
724.557	46.12
725.112	50.12
725.668	43.12
726.223	45.12
726.778	47.12
727.333	45.12
727.888	38.12
728.443	42.12
728.998	38.12
729.553	46.12
730.108	42.12
730.663	41.12
731.218	41.12
731.772	45.12
732.327	40.12
732.881	37.12
733.436	37.12
733.99	36.12
734.545	36.12
735.099	38.12
735.653	34.12
736.207	28.12
736.761	40.12
737.315	38.12
737.869	31.12
738.423	36.12
738.977	37.12
739.531	34.12
740.084	32.12
740.638	31.12
741.192	31.12
741.745	38.12
742.299	34.12
742.852	27.12
743.405	35.12
743.959	34.12
744.512	31.12
745.065	31.12
745.618	25.12
746.171	32.12
746.724	29.12
747.277	29.12
747.83	27.12
748.382	31.12
748.935	29.12
749.488	32.12
750.04	24.12
750.593	27.12
751.145	25.12
751.698	26.12
752.25	25.12
752.802	27.12
753.354	18.12
753.906	25.12
754.458	24.12
755.01	25.12
755.562	19.12
756.114	24.12
756.666	28.12
757.218	17.12
757.769	20.12
758.321	23.12
758.873	22.12
759.424	24.12
759.975	21.12
760.527	20.12
761.078	21.12
761.629	19.12
762.181	19.12
762.732	16.12
763.283	21.12
763.834	13.12
764.385	19.12
764.935	21.12
765.486	20.12
766.037	17.12
766.588	18.12
767.138	18.12
767.689	18.12
768.239	17.12
768.79	19.12
769.34	15.12
769.89	17.12
770.44	19.12
770.991	12.12
771.541	18.12
772.091	17.12
772.641	17.12
773.191	16.12
773.74	17.12
774.29	12.12
774.84	19.12
775.39	17.12
775.939	13.12
776.489	12.12
777.038	11.12
777.588	14.12
778.137	16.12
778.686	16.12
779.235	10.12
779.784	14.12
780.334	18.12
780.883	12.12
781.431	12.12
781.98	12.12
782.529	16.12
783.078	14.12
783.627	16.12
784.175	10.12
784.724	11.12
785.272	12.12
785.821	16.12
786.369	8.12
786.917	9.12
787.466	12.12
788.014	10.12
788.562	6.12
789.11	12.12
789.658	8.12
790.206	11.12
790.754	12.12
791.302	12.12
791.849	10.12
792.397	13.12
792.945	10.12
793.492	10.12
794.04	8.12
794.587	8.12
795.134	6.12
795.682	6.12
796.229	7.12
796.776	8.12
797.323	6.12
797.87	11.12
798.417	9.12
798.964	6.12
799.511	4.12
800.058	8.12
800.604	7.12
801.151	9.12
801.698	5.12
802.244	7.12
802.791	9.12
803.337	8.12
803.883	12.12
804.43	7.12
804.976	2.12
805.522	6.12
806.068	7.12
806.614	7.12
807.16	8.12
807.706	7.12
808.252	10.12
808.797	8.12
809.343	10.12
809.889	9.12
810.434	7.12
810.98	6.12
811.525	6.12
812.071	5.12
812.616	9.12
813.161	3.12
813.706	5.12
814.252	4.12
814.797	3.12
815.342	4.12
815.886	6.12
816.431	3.12
816.976	2.12
817.521	5.12
818.066	4.12
818.61	3.12
819.155	8.12
819.699	-0.88
820.244	5.12
820.788	4.12
821.332	8.12
821.876	3.12
822.421	4.12
822.965	-0.88
823.509	4.12
824.053	6.12
824.597	3.12
825.14	4.12
825.684	-0.88
826.228	3.12
826.771	5.12
827.315	5.12
827.859	3.12
828.402	4.12
828.945	3.12
829.489	4.12
830.032	2.12
830.575	2.12
831.118	5.12
831.661	1.12
832.204	5.12
832.747	4.12
833.29	4.12
833.833	5.12
834.376	1.12
834.918	1.12
835.461	2.12
836.004	0.12
836.546	1.12
837.088	1.12
837.631	3.12
838.173	6.12
838.715	4.12
839.257	2.12
839.8	2.12
840.342	2.12
840.884	2.12
841.425	4.12
841.967	2.12
842.509	0.12
843.051	1.12
843.592	1.12
844.134	4.12
844.676	3.12
845.217	3.12
845.758	5.12
846.3	3.12
846.841	-0.88
847.382	4.12
847.923	2.12
848.464	0.12
849.005	3.12
849.546	1.12
850.087	0.12
850.628	4.12
851.169	-2.88
851.709	-1.88
852.25	0.12
852.791	2.12
853.331	3.12
853.871	0.12
854.412	-0.88
854.952	4.12
855.492	2.12
856.033	1.12
856.573	1.12
857.113	0.12
857.653	3.12
858.193	1.12
858.732	2.12
859.272	5.12
859.812	5.12
860.352	0.12
860.891	0.12
861.431	-1.88
861.97	3.12
862.509	-1.88
863.049	2.12
863.588	2.12
864.127	3.12
864.666	-1.88
865.205	2.12
865.744	3.12
866.283	-0.88
866.822	1.12
867.361	0.12
867.9	1.12
868.438	-4.88
868.977	2.12
869.516	-0.88
870.054	-0.88
870.593	-1.88
871.131	2.12
871.669	3.12
872.207	-0.88
872.746	-1.88
873.284	0.12
873.822	0.12
874.36	-1.88
874.898	0.12
875.435	1.12
875.973	0.12
876.511	2.12
877.048	2.12
877.586	0.12
878.124	-1.88
878.661	3.12
879.198	1.12
879.736	1.12
880.273	0.12
880.81	-2.88
881.347	-1.88
881.884	0.12
882.421	-0.88
882.958	1.12
883.495	1.12
884.032	3.12
884.569	0.12
885.105	-1.88
885.642	2.12
886.178	2.12
886.715	3.12
887.251	1.12
887.788	7.12
888.324	0.12
888.86	1.12
889.396	1.12
889.932	1.12
890.468	-2.88
891.004	-0.88
891.54	-0.88
892.076	0.12
892.612	0.12
893.147	-0.88
893.683	-3.88
894.219	3.12
894.754	1.12
895.29	1.12
895.825	0.12
896.36	1.12
896.896	-0.88
897.431	-0.88
897.966	-0.88
898.501	-0.88
899.036	2.12
899.571	-0.88
900.106	-0.88
900.64	-0.88
901.175	1.12
901.71	0.12
902.244	3.12
902.779	-2.88
903.313	3.12
903.848	-0.88
904.382	0.12
904.916	0.12
905.45	0.12
905.985	0.12
906.519	-3.88
907.053	0.12
907.587	2.12
908.12	0.12
908.654	-0.88
909.188	5.12
909.722	-0.88
910.255	-4.88
910.789	-1.88
911.322	3.12
911.856	3.12
912.389	-0.88
912.922	0.12
913.456	-2.88
913.989	4.12
914.522	-1.88
915.055	-0.88
915.588	2.12
916.121	1.12
916.653	0.12
917.186	-3.88
917.719	0.12
918.252	-0.88
918.784	-4.88
919.317	-2.88
919.849	0.12
920.381	-1.88
920.914	-1.88
921.446	-2.88
921.978	1.12
922.51	0.12
923.042	-0.88
923.574	1.12
924.106	4.12
924.638	-0.88
925.17	1.12
925.701	3.12
926.233	0.12
926.765	5.12
927.296	0.12
927.828	-2.88
928.359	-2.88
928.89	0.12
929.422	1.12
929.953	-0.88
930.484	0.12
931.015	-1.88
931.546	-1.88
932.077	1.12
932.608	0.12
933.138	-1.88
933.669	-2.88
934.2	-4.88
934.73	-0.88
935.261	-1.88
