Data from LOOPyPMA-1_QEP046991__47__18-11-56-758.txt Node

Date: Sun May 11 18:11:56 CEST 2025
User: superuser
Spectrometer: QEP04699
Trigger mode: 4
Integration Time (sec): 1.000000E-1
Scans to average: 1
Electric dark correction enabled: true
Nonlinearity correction enabled: false
Boxcar width: 0
XAxis mode: Wavelengths
Number of Pixels in Spectrum: 1044
>>>>>Begin Spectral Data<<<<<
347.57	11
348.165	3
348.76	-3
349.355	-4
349.95	-1
350.545	0
351.14	3
351.735	0
352.33	0
352.924	0
353.519	1
354.114	1
354.708	0
355.303	1
355.897	1
356.491	-2
357.086	-4
357.68	2
358.274	2
358.868	3
359.462	2
360.056	3
360.65	3
361.244	1
361.838	2
362.431	-4
363.025	6
363.619	4
364.212	3
364.806	3
365.399	3
365.993	1
366.586	1
367.179	0
367.772	4
368.366	1
368.959	2
369.552	-2
370.145	5
370.738	3
371.331	0
371.923	2
372.516	-1
373.109	3
373.701	-1
374.294	2
374.887	2
375.479	3
376.071	0
376.664	-1
377.256	2
377.848	3
378.44	-3
379.033	0
379.625	2
380.217	1
380.808	3
381.4	6
381.992	1
382.584	4
383.176	6
383.767	4
384.359	1
384.95	1
385.542	1
386.133	2
386.725	2
387.316	4
387.907	3
388.498	5
389.089	0
389.68	6
390.271	5
390.862	3
391.453	3
392.044	3
392.635	0
393.225	4
393.816	3
394.407	-2
394.997	1
395.588	0
396.178	4
396.768	0
397.359	1
397.949	4
398.539	5
399.129	3
399.719	4
400.309	4
400.899	5
401.489	2
402.079	5
402.668	2
403.258	4
403.848	5
404.437	-1
405.027	1
405.616	6
406.206	2
406.795	5
407.384	5
407.973	5
408.563	1
409.152	5
409.741	1
410.33	7
410.919	8
411.508	9
412.096	10
412.685	7
413.274	8
413.862	8
414.451	8
415.039	9
415.628	8
416.216	8
416.805	15
417.393	11
417.981	13
418.569	12
419.157	15
419.745	9
420.333	14
420.921	15
421.509	17
422.097	17
422.685	18
423.272	21
423.86	23
424.447	26
425.035	25
425.622	27
426.21	28
426.797	28
427.384	29
427.972	36
428.559	33
429.146	37
429.733	44
430.32	44
430.907	48
431.494	50
432.08	56
432.667	55
433.254	68
433.84	72
434.427	76
435.013	87
435.6	89
436.186	94
436.772	100
437.359	111
437.945	114
438.531	125
439.117	140
439.703	154
440.289	166
440.875	177
441.461	188
442.047	199
442.632	215
443.218	242
443.804	259
444.389	283
444.975	300
445.56	317
446.145	346
446.731	365
447.316	390
447.901	419
448.486	440
449.071	469
449.656	520
450.241	544
450.826	585
451.411	629
451.996	670
452.58	738
453.165	815
453.75	860
454.334	922
454.919	973
455.503	1042
456.087	1154
456.672	1220
457.256	1305
457.84	1409
458.424	1498
459.008	1619
459.592	1739
460.176	1820
460.76	1938
461.344	2003
461.927	2098
462.511	2192
463.095	2233
463.678	2271
464.262	2298
464.845	2328
465.429	2331
466.012	2302
466.595	2220
467.178	2208
467.762	2154
468.345	2082
468.928	1996
469.511	1897
470.094	1762
470.676	1680
471.259	1600
471.842	1471
472.425	1374
473.007	1301
473.59	1216
474.172	1127
474.755	1055
475.337	981
475.919	933
476.502	876
477.084	836
477.666	785
478.248	729
478.83	694
479.412	673
479.994	643
480.576	622
481.157	585
481.739	542
482.321	517
482.902	491
483.484	471
484.065	459
484.647	410
485.228	392
485.809	376
486.391	346
486.972	314
487.553	304
488.134	279
488.715	274
489.296	250
489.877	241
490.458	220
491.038	210
491.619	193
492.2	180
492.78	169
493.361	172
493.941	161
494.522	150
495.102	139
495.682	145
496.262	137
496.843	124
497.423	127
498.003	120
498.583	120
499.163	123
499.742	106
500.322	98
500.902	100
501.482	102
502.061	93
502.641	96
503.22	97
503.8	88
504.379	91
504.958	88
505.538	85
506.117	80
506.696	78
507.275	75
507.854	83
508.433	77
509.012	80
509.591	80
510.169	82
510.748	81
511.327	87
511.905	93
512.484	85
513.062	86
513.641	95
514.219	101
514.797	98
515.375	110
515.954	112
516.532	118
517.11	128
517.688	137
518.266	138
518.843	150
519.421	156
519.999	167
520.577	170
521.154	183
521.732	183
522.309	201
522.887	213
523.464	206
524.041	225
524.619	235
525.196	248
525.773	243
526.35	240
526.927	262
527.504	253
528.081	261
528.658	269
529.235	266
529.811	274
530.388	283
530.964	288
531.541	285
532.117	288
532.694	291
533.27	285
533.846	283
534.423	290
534.999	279
535.575	294
536.151	283
536.727	283
537.303	284
537.879	277
538.455	280
539.03	273
539.606	284
540.182	266
540.757	273
541.333	266
541.908	263
542.483	253
543.059	261
543.634	261
544.209	255
544.784	263
545.359	253
545.934	257
546.509	250
547.084	253
547.659	242
548.234	232
548.808	248
549.383	247
549.958	228
550.532	240
551.107	225
551.681	236
552.255	227
552.83	224
553.404	232
553.978	224
554.552	222
555.126	221
555.7	231
556.274	231
556.848	224
557.422	226
557.995	236
558.569	239
559.143	242
559.716	247
560.29	248
560.863	235
561.437	249
562.01	242
562.583	241
563.156	255
563.729	246
564.302	253
564.875	262
565.448	260
566.021	272
566.594	263
567.167	276
567.74	277
568.312	273
568.885	277
569.457	274
570.03	285
570.602	275
571.174	282
571.747	288
572.319	283
572.891	278
573.463	284
574.035	293
574.607	292
575.179	290
575.751	286
576.323	294
576.894	284
577.466	274
578.038	296
578.609	297
579.181	288
579.752	284
580.323	281
580.895	292
581.466	281
582.037	289
582.608	278
583.179	295
583.75	277
584.321	285
584.892	297
585.463	286
586.033	292
586.604	310
587.175	300
587.745	294
588.316	290
588.886	298
589.457	289
590.027	307
590.597	308
591.167	309
591.737	300
592.308	298
592.878	303
593.447	298
594.017	292
594.587	283
595.157	285
595.727	276
596.296	287
596.866	287
597.435	283
598.005	281
598.574	275
599.143	270
599.713	275
600.282	267
600.851	265
601.42	263
601.989	281
602.558	270
603.127	264
603.696	263
604.265	256
604.833	255
605.402	259
605.971	263
606.539	258
607.108	257
607.676	264
608.244	251
608.813	262
609.381	260
609.949	261
610.517	255
611.085	256
611.653	256
612.221	241
612.789	261
613.357	264
613.924	248
614.492	254
615.06	241
615.627	255
616.195	243
616.762	241
617.329	266
617.897	244
618.464	253
619.031	256
619.598	247
620.165	254
620.732	255
621.299	249
621.866	251
622.433	254
623	238
623.566	244
624.133	244
624.7	238
625.266	225
625.832	241
626.399	230
626.965	238
627.531	238
628.098	226
628.664	231
629.23	234
629.796	218
630.362	240
630.928	227
631.493	227
632.059	225
632.625	228
633.19	218
633.756	218
634.322	219
634.887	217
635.452	226
636.018	205
636.583	219
637.148	215
637.713	212
638.278	205
638.843	212
639.408	208
639.973	211
640.538	205
641.103	198
641.667	188
642.232	195
642.797	202
643.361	199
643.926	193
644.49	188
645.054	184
645.619	181
646.183	186
646.747	188
647.311	182
647.875	192
648.439	185
649.003	179
649.567	181
650.131	179
650.694	174
651.258	172
651.822	175
652.385	179
652.949	171
653.512	165
654.075	172
654.639	163
655.202	165
655.765	163
656.328	150
656.891	155
657.454	162
658.017	157
658.58	156
659.143	150
659.705	151
660.268	154
660.83	146
661.393	146
661.955	146
662.518	145
663.08	151
663.643	137
664.205	132
664.767	137
665.329	135
665.891	142
666.453	135
667.015	140
667.577	129
668.139	133
668.7	130
669.262	127
669.824	128
670.385	124
670.947	126
671.508	120
672.069	129
672.631	125
673.192	122
673.753	125
674.314	121
674.875	115
675.436	119
675.997	124
676.558	115
677.119	116
677.679	106
678.24	113
678.801	117
679.361	114
679.922	117
680.482	110
681.042	114
681.603	112
682.163	102
682.723	110
683.283	108
683.843	105
684.403	115
684.963	97
685.523	109
686.083	100
686.642	104
687.202	102
687.762	103
688.321	91
688.881	92
689.44	99
690	88
690.559	89
691.118	92
691.677	89
692.236	80
692.795	85
693.354	91
693.913	87
694.472	87
695.031	81
695.59	78
696.148	80
696.707	81
697.265	79
697.824	82
698.382	81
698.941	77
699.499	77
700.057	66
700.615	78
701.173	73
701.731	72
702.289	74
702.847	69
703.405	70
703.963	69
704.521	69
705.078	61
705.636	64
706.194	68
706.751	66
707.308	62
707.866	66
708.423	63
708.98	62
709.537	60
710.095	62
710.652	60
711.209	61
711.765	57
712.322	56
712.879	57
713.436	54
713.992	62
714.549	50
715.106	61
715.662	57
716.218	54
716.775	47
717.331	49
717.887	47
718.443	52
719	50
719.556	49
720.112	47
720.667	42
721.223	45
721.779	41
722.335	41
722.89	44
723.446	43
724.002	50
724.557	38
725.112	47
725.668	45
726.223	40
726.778	42
727.333	40
727.888	42
728.443	38
728.998	41
729.553	46
730.108	37
730.663	36
731.218	39
731.772	33
732.327	41
732.881	37
733.436	34
733.99	34
734.545	34
735.099	32
735.653	30
736.207	35
736.761	28
737.315	34
737.869	34
738.423	35
738.977	37
739.531	36
740.084	28
740.638	29
741.192	32
741.745	28
742.299	30
742.852	34
743.405	29
743.959	28
744.512	25
745.065	25
745.618	27
746.171	21
746.724	30
747.277	28
747.83	21
748.382	22
748.935	22
749.488	27
750.04	28
750.593	24
751.145	26
751.698	26
752.25	20
752.802	25
753.354	24
753.906	26
754.458	25
755.01	21
755.562	22
756.114	24
756.666	22
757.218	23
757.769	22
758.321	17
758.873	19
759.424	18
759.975	18
760.527	20
761.078	22
761.629	20
762.181	21
762.732	22
763.283	16
763.834	17
764.385	17
764.935	16
765.486	13
766.037	18
766.588	19
767.138	22
767.689	17
768.239	18
768.79	21
769.34	16
769.89	17
770.44	17
770.991	12
771.541	14
772.091	17
772.641	15
773.191	15
773.74	12
774.29	14
774.84	17
775.39	17
775.939	16
776.489	15
777.038	11
777.588	12
778.137	14
778.686	11
779.235	10
779.784	12
780.334	14
780.883	11
781.431	15
781.98	11
782.529	12
783.078	12
783.627	8
784.175	10
784.724	13
785.272	16
785.821	9
786.369	13
786.917	12
787.466	13
788.014	13
788.562	12
789.11	9
789.658	11
790.206	11
790.754	15
791.302	9
791.849	12
792.397	12
792.945	8
793.492	6
794.04	8
794.587	9
795.134	11
795.682	9
796.229	9
796.776	12
797.323	11
797.87	8
798.417	11
798.964	11
799.511	11
800.058	8
800.604	11
801.151	9
801.698	10
802.244	8
802.791	8
803.337	13
803.883	9
804.43	8
804.976	9
805.522	3
806.068	8
806.614	8
807.16	10
807.706	9
808.252	3
808.797	5
809.343	7
809.889	7
810.434	9
810.98	10
811.525	9
812.071	9
812.616	5
813.161	6
813.706	6
814.252	5
814.797	5
815.342	7
815.886	9
816.431	4
816.976	7
817.521	4
818.066	11
818.61	9
819.155	3
819.699	6
820.244	5
820.788	9
821.332	5
821.876	4
822.421	4
822.965	5
823.509	7
824.053	6
824.597	6
825.14	4
825.684	4
826.228	2
826.771	11
827.315	3
827.859	5
828.402	4
828.945	3
829.489	3
830.032	4
830.575	5
831.118	4
831.661	8
832.204	3
832.747	6
833.29	2
833.833	5
834.376	4
834.918	2
835.461	1
836.004	7
836.546	7
837.088	4
837.631	3
838.173	6
838.715	4
839.257	3
839.8	6
840.342	5
840.884	5
841.425	3
841.967	3
842.509	4
843.051	3
843.592	6
844.134	3
844.676	2
845.217	5
845.758	3
846.3	3
846.841	3
847.382	4
847.923	2
848.464	5
849.005	2
849.546	3
850.087	5
850.628	3
851.169	1
851.709	0
852.25	2
852.791	6
853.331	2
853.871	10
854.412	2
854.952	4
855.492	3
856.033	-1
856.573	1
857.113	3
857.653	2
858.193	2
858.732	3
859.272	-1
859.812	5
860.352	4
860.891	3
861.431	1
861.97	4
862.509	6
863.049	4
863.588	3
864.127	4
864.666	5
865.205	3
865.744	3
866.283	2
866.822	1
867.361	2
867.9	4
868.438	2
868.977	2
869.516	4
870.054	-1
870.593	1
871.131	5
871.669	2
872.207	0
872.746	4
873.284	5
873.822	6
874.36	1
874.898	2
875.435	3
875.973	-1
876.511	3
877.048	2
877.586	4
878.124	-2
878.661	3
879.198	3
879.736	1
880.273	0
880.81	0
881.347	-2
881.884	2
882.421	2
882.958	3
883.495	-2
884.032	2
884.569	7
885.105	1
885.642	2
886.178	-1
886.715	3
887.251	5
887.788	0
888.324	3
888.86	3
889.396	2
889.932	6
890.468	4
891.004	0
891.54	-1
892.076	5
892.612	0
893.147	6
893.683	1
894.219	4
894.754	2
895.29	1
895.825	0
896.36	5
896.896	5
897.431	0
897.966	-1
898.501	1
899.036	1
899.571	-1
900.106	3
900.64	3
901.175	-1
901.71	3
902.244	1
902.779	1
903.313	0
903.848	5
904.382	1
904.916	-2
905.45	2
905.985	0
906.519	2
907.053	2
907.587	2
908.12	1
908.654	4
909.188	5
909.722	1
910.255	3
910.789	0
911.322	4
911.856	3
912.389	4
912.922	0
913.456	0
913.989	1
914.522	2
915.055	-1
915.588	-3
916.121	2
916.653	1
917.186	2
917.719	0
918.252	6
918.784	3
919.317	6
919.849	4
920.381	-1
920.914	4
921.446	7
921.978	-3
922.51	1
923.042	1
923.574	3
924.106	1
924.638	0
925.17	1
925.701	4
926.233	3
926.765	-1
927.296	2
927.828	4
928.359	0
928.89	1
929.422	1
929.953	3
930.484	4
931.015	-2
931.546	1
932.077	1
932.608	0
933.138	2
933.669	-4
934.2	-1
934.73	-2
935.261	0
