Data from LOOPyPMA-1_QEP046991__17__18-11-26-757.txt Node

Date: Sun May 11 18:11:26 CEST 2025
User: superuser
Spectrometer: QEP04699
Trigger mode: 4
Integration Time (sec): 1.000000E-1
Scans to average: 1
Electric dark correction enabled: true
Nonlinearity correction enabled: false
Boxcar width: 0
XAxis mode: Wavelengths
Number of Pixels in Spectrum: 1044
>>>>>Begin Spectral Data<<<<<
347.57	10.25
348.165	3.25
348.76	-4.75
349.355	-2.75
349.95	-2.75
350.545	0.25
351.14	-1.75
351.735	-1.75
352.33	1.25
352.924	3.25
353.519	0.25
354.114	3.25
354.708	2.25
355.303	1.25
355.897	-0.75
356.491	5.25
357.086	2.25
357.68	4.25
358.274	0.25
358.868	1.25
359.462	-1.75
360.056	1.25
360.65	1.25
361.244	0.25
361.838	0.25
362.431	0.25
363.025	-0.75
363.619	2.25
364.212	3.25
364.806	1.25
365.399	3.25
365.993	3.25
366.586	4.25
367.179	4.25
367.772	0.25
368.366	1.25
368.959	-1.75
369.552	-0.75
370.145	0.25
370.738	1.25
371.331	3.25
371.923	5.25
372.516	4.25
373.109	1.25
373.701	-0.75
374.294	4.25
374.887	-0.75
375.479	0.25
376.071	2.25
376.664	-1.75
377.256	2.25
377.848	-0.75
378.44	3.25
379.033	0.25
379.625	2.25
380.217	1.25
380.808	4.25
381.4	-0.75
381.992	3.25
382.584	1.25
383.176	0.25
383.767	-1.75
384.359	4.25
384.95	0.25
385.542	0.25
386.133	1.25
386.725	0.25
387.316	0.25
387.907	0.25
388.498	3.25
389.089	1.25
389.68	2.25
390.271	-0.75
390.862	3.25
391.453	-1.75
392.044	-0.75
392.635	1.25
393.225	-0.75
393.816	1.25
394.407	-1.75
394.997	0.25
395.588	-1.75
396.178	1.25
396.768	-1.75
397.359	8.25
397.949	2.25
398.539	3.25
399.129	2.25
399.719	3.25
400.309	4.25
400.899	2.25
401.489	4.25
402.079	3.25
402.668	6.25
403.258	6.25
403.848	1.25
404.437	5.25
405.027	0.25
405.616	5.25
406.206	3.25
406.795	3.25
407.384	3.25
407.973	3.25
408.563	4.25
409.152	1.25
409.741	5.25
410.33	0.25
410.919	8.25
411.508	6.25
412.096	7.25
412.685	6.25
413.274	6.25
413.862	6.25
414.451	5.25
415.039	8.25
415.628	8.25
416.216	6.25
416.805	10.25
417.393	15.25
417.981	10.25
418.569	6.25
419.157	9.25
419.745	15.25
420.333	13.25
420.921	16.25
421.509	17.25
422.097	15.25
422.685	15.25
423.272	21.25
423.86	22.25
424.447	22.25
425.035	22.25
425.622	23.25
426.21	28.25
426.797	31.25
427.384	32.25
427.972	31.25
428.559	33.25
429.146	32.25
429.733	40.25
430.32	39.25
430.907	48.25
431.494	50.25
432.08	54.25
432.667	57.25
433.254	65.25
433.84	71.25
434.427	84.25
435.013	72.25
435.6	83.25
436.186	97.25
436.772	96.25
437.359	112.25
437.945	114.25
438.531	127.25
439.117	136.25
439.703	145.25
440.289	152.25
440.875	167.25
441.461	189.25
442.047	192.25
442.632	207.25
443.218	230.25
443.804	241.25
444.389	271.25
444.975	279.25
445.56	320.25
446.145	327.25
446.731	351.25
447.316	387.25
447.901	409.25
448.486	424.25
449.071	461.25
449.656	498.25
450.241	535.25
450.826	572.25
451.411	617.25
451.996	653.25
452.58	726.25
453.165	778.25
453.75	820.25
454.334	887.25
454.919	958.25
455.503	1029.25
456.087	1104.25
456.672	1169.25
457.256	1261.25
457.84	1356.25
458.424	1426.25
459.008	1546.25
459.592	1641.25
460.176	1763.25
460.76	1837.25
461.344	1962.25
461.927	2001.25
462.511	2069.25
463.095	2116.25
463.678	2149.25
464.262	2186.25
464.845	2222.25
465.429	2196.25
466.012	2217.25
466.595	2173.25
467.178	2107.25
467.762	2055.25
468.345	1956.25
468.928	1859.25
469.511	1788.25
470.094	1670.25
470.676	1589.25
471.259	1498.25
471.842	1384.25
472.425	1318.25
473.007	1220.25
473.59	1141.25
474.172	1050.25
474.755	992.25
475.337	922.25
475.919	885.25
476.502	813.25
477.084	769.25
477.666	741.25
478.248	711.25
478.83	660.25
479.412	621.25
479.994	592.25
480.576	560.25
481.157	535.25
481.739	530.25
482.321	486.25
482.902	466.25
483.484	430.25
484.065	403.25
484.647	387.25
485.228	360.25
485.809	354.25
486.391	318.25
486.972	310.25
487.553	270.25
488.134	264.25
488.715	250.25
489.296	227.25
489.877	221.25
490.458	200.25
491.038	194.25
491.619	174.25
492.2	177.25
492.78	160.25
493.361	154.25
493.941	147.25
494.522	134.25
495.102	137.25
495.682	129.25
496.262	123.25
496.843	116.25
497.423	124.25
498.003	116.25
498.583	111.25
499.163	107.25
499.742	107.25
500.322	107.25
500.902	99.25
501.482	93.25
502.061	98.25
502.641	92.25
503.22	96.25
503.8	84.25
504.379	85.25
504.958	82.25
505.538	84.25
506.117	81.25
506.696	82.25
507.275	81.25
507.854	84.25
508.433	75.25
509.012	84.25
509.591	76.25
510.169	78.25
510.748	89.25
511.327	86.25
511.905	88.25
512.484	96.25
513.062	97.25
513.641	98.25
514.219	107.25
514.797	117.25
515.375	119.25
515.954	127.25
516.532	137.25
517.11	136.25
517.688	137.25
518.266	146.25
518.843	164.25
519.421	171.25
519.999	182.25
520.577	190.25
521.154	201.25
521.732	210.25
522.309	225.25
522.887	227.25
523.464	229.25
524.041	236.25
524.619	258.25
525.196	263.25
525.773	285.25
526.35	279.25
526.927	275.25
527.504	291.25
528.081	296.25
528.658	302.25
529.235	312.25
529.811	308.25
530.388	313.25
530.964	332.25
531.541	307.25
532.117	324.25
532.694	312.25
533.27	301.25
533.846	311.25
534.423	306.25
534.999	308.25
535.575	315.25
536.151	318.25
536.727	313.25
537.303	314.25
537.879	315.25
538.455	299.25
539.03	306.25
539.606	301.25
540.182	292.25
540.757	303.25
541.333	295.25
541.908	293.25
542.483	293.25
543.059	279.25
543.634	273.25
544.209	284.25
544.784	287.25
545.359	284.25
545.934	263.25
546.509	269.25
547.084	268.25
547.659	267.25
548.234	272.25
548.808	257.25
549.383	256.25
549.958	267.25
550.532	256.25
551.107	263.25
551.681	249.25
552.255	257.25
552.83	254.25
553.404	266.25
553.978	253.25
554.552	238.25
555.126	254.25
555.7	250.25
556.274	250.25
556.848	264.25
557.422	256.25
557.995	254.25
558.569	253.25
559.143	254.25
559.716	268.25
560.29	262.25
560.863	275.25
561.437	260.25
562.01	275.25
562.583	273.25
563.156	284.25
563.729	292.25
564.302	291.25
564.875	287.25
565.448	296.25
566.021	300.25
566.594	303.25
567.167	305.25
567.74	302.25
568.312	322.25
568.885	303.25
569.457	314.25
570.03	333.25
570.602	333.25
571.174	319.25
571.747	331.25
572.319	317.25
572.891	320.25
573.463	319.25
574.035	344.25
574.607	328.25
575.179	323.25
575.751	329.25
576.323	328.25
576.894	324.25
577.466	324.25
578.038	331.25
578.609	324.25
579.181	323.25
579.752	334.25
580.323	305.25
580.895	324.25
581.466	329.25
582.037	327.25
582.608	321.25
583.179	327.25
583.75	315.25
584.321	330.25
584.892	329.25
585.463	337.25
586.033	331.25
586.604	329.25
587.175	321.25
587.745	340.25
588.316	340.25
588.886	341.25
589.457	341.25
590.027	342.25
590.597	349.25
591.167	333.25
591.737	335.25
592.308	328.25
592.878	336.25
593.447	330.25
594.017	316.25
594.587	330.25
595.157	325.25
595.727	314.25
596.296	315.25
596.866	316.25
597.435	313.25
598.005	315.25
598.574	323.25
599.143	306.25
599.713	307.25
600.282	316.25
600.851	318.25
601.42	296.25
601.989	305.25
602.558	299.25
603.127	298.25
603.696	293.25
604.265	301.25
604.833	306.25
605.402	301.25
605.971	294.25
606.539	298.25
607.108	280.25
607.676	296.25
608.244	291.25
608.813	298.25
609.381	296.25
609.949	288.25
610.517	304.25
611.085	298.25
611.653	281.25
612.221	292.25
612.789	289.25
613.357	293.25
613.924	294.25
614.492	276.25
615.06	280.25
615.627	282.25
616.195	285.25
616.762	282.25
617.329	288.25
617.897	280.25
618.464	271.25
619.031	272.25
619.598	272.25
620.165	281.25
620.732	283.25
621.299	273.25
621.866	271.25
622.433	272.25
623	275.25
623.566	281.25
624.133	270.25
624.7	275.25
625.266	267.25
625.832	265.25
626.399	265.25
626.965	269.25
627.531	254.25
628.098	257.25
628.664	266.25
629.23	255.25
629.796	265.25
630.362	270.25
630.928	259.25
631.493	266.25
632.059	258.25
632.625	258.25
633.19	246.25
633.756	257.25
634.322	247.25
634.887	252.25
635.452	245.25
636.018	242.25
636.583	255.25
637.148	241.25
637.713	236.25
638.278	225.25
638.843	236.25
639.408	238.25
639.973	230.25
640.538	238.25
641.103	228.25
641.667	221.25
642.232	225.25
642.797	226.25
643.361	220.25
643.926	215.25
644.49	214.25
645.054	208.25
645.619	218.25
646.183	213.25
646.747	206.25
647.311	210.25
647.875	210.25
648.439	201.25
649.003	205.25
649.567	199.25
650.131	206.25
650.694	182.25
651.258	198.25
651.822	190.25
652.385	188.25
652.949	196.25
653.512	187.25
654.075	182.25
654.639	183.25
655.202	189.25
655.765	175.25
656.328	179.25
656.891	179.25
657.454	178.25
658.017	178.25
658.58	176.25
659.143	168.25
659.705	171.25
660.268	174.25
660.83	163.25
661.393	171.25
661.955	177.25
662.518	163.25
663.08	158.25
663.643	156.25
664.205	155.25
664.767	154.25
665.329	151.25
665.891	151.25
666.453	154.25
667.015	162.25
667.577	152.25
668.139	146.25
668.7	149.25
669.262	145.25
669.824	142.25
670.385	142.25
670.947	138.25
671.508	142.25
672.069	137.25
672.631	133.25
673.192	128.25
673.753	141.25
674.314	145.25
674.875	137.25
675.436	151.25
675.997	133.25
676.558	136.25
677.119	135.25
677.679	127.25
678.24	131.25
678.801	132.25
679.361	137.25
679.922	128.25
680.482	133.25
681.042	120.25
681.603	120.25
682.163	127.25
682.723	132.25
683.283	127.25
683.843	123.25
684.403	131.25
684.963	112.25
685.523	112.25
686.083	114.25
686.642	110.25
687.202	114.25
687.762	113.25
688.321	112.25
688.881	114.25
689.44	97.25
690	102.25
690.559	105.25
691.118	99.25
691.677	104.25
692.236	109.25
692.795	95.25
693.354	100.25
693.913	97.25
694.472	97.25
695.031	89.25
695.59	90.25
696.148	98.25
696.707	88.25
697.265	87.25
697.824	84.25
698.382	84.25
698.941	86.25
699.499	86.25
700.057	81.25
700.615	83.25
701.173	79.25
701.731	75.25
702.289	75.25
702.847	79.25
703.405	76.25
703.963	74.25
704.521	73.25
705.078	75.25
705.636	71.25
706.194	72.25
706.751	71.25
707.308	72.25
707.866	73.25
708.423	71.25
708.98	73.25
709.537	71.25
710.095	64.25
710.652	70.25
711.209	65.25
711.765	65.25
712.322	61.25
712.879	60.25
713.436	70.25
713.992	56.25
714.549	51.25
715.106	61.25
715.662	60.25
716.218	57.25
716.775	60.25
717.331	52.25
717.887	57.25
718.443	54.25
719	50.25
719.556	47.25
720.112	51.25
720.667	53.25
721.223	47.25
721.779	50.25
722.335	53.25
722.89	51.25
723.446	48.25
724.002	45.25
724.557	46.25
725.112	46.25
725.668	48.25
726.223	44.25
726.778	45.25
727.333	37.25
727.888	40.25
728.443	42.25
728.998	41.25
729.553	38.25
730.108	42.25
730.663	40.25
731.218	42.25
731.772	39.25
732.327	43.25
732.881	38.25
733.436	39.25
733.99	40.25
734.545	38.25
735.099	33.25
735.653	32.25
736.207	37.25
736.761	36.25
737.315	40.25
737.869	35.25
738.423	36.25
738.977	31.25
739.531	35.25
740.084	36.25
740.638	30.25
741.192	33.25
741.745	39.25
742.299	28.25
742.852	34.25
743.405	29.25
743.959	32.25
744.512	33.25
745.065	30.25
745.618	35.25
746.171	30.25
746.724	28.25
747.277	31.25
747.83	30.25
748.382	29.25
748.935	26.25
749.488	31.25
750.04	25.25
750.593	24.25
751.145	25.25
751.698	32.25
752.25	30.25
752.802	20.25
753.354	29.25
753.906	21.25
754.458	22.25
755.01	23.25
755.562	28.25
756.114	22.25
756.666	24.25
757.218	17.25
757.769	23.25
758.321	24.25
758.873	21.25
759.424	22.25
759.975	26.25
760.527	25.25
761.078	20.25
761.629	22.25
762.181	17.25
762.732	19.25
763.283	19.25
763.834	16.25
764.385	21.25
764.935	18.25
765.486	15.25
766.037	16.25
766.588	19.25
767.138	17.25
767.689	18.25
768.239	18.25
768.79	14.25
769.34	19.25
769.89	16.25
770.44	21.25
770.991	20.25
771.541	22.25
772.091	17.25
772.641	17.25
773.191	15.25
773.74	17.25
774.29	14.25
774.84	13.25
775.39	17.25
775.939	16.25
776.489	16.25
777.038	12.25
777.588	17.25
778.137	17.25
778.686	17.25
779.235	22.25
779.784	21.25
780.334	13.25
780.883	9.25
781.431	18.25
781.98	16.25
782.529	13.25
783.078	18.25
783.627	10.25
784.175	14.25
784.724	12.25
785.272	13.25
785.821	13.25
786.369	14.25
786.917	16.25
787.466	8.25
788.014	13.25
788.562	14.25
789.11	12.25
789.658	13.25
790.206	11.25
790.754	7.25
791.302	14.25
791.849	14.25
792.397	7.25
792.945	16.25
793.492	14.25
794.04	11.25
794.587	10.25
795.134	8.25
795.682	10.25
796.229	9.25
796.776	7.25
797.323	9.25
797.87	11.25
798.417	9.25
798.964	10.25
799.511	11.25
800.058	9.25
800.604	12.25
801.151	7.25
801.698	9.25
802.244	5.25
802.791	11.25
803.337	13.25
803.883	5.25
804.43	6.25
804.976	14.25
805.522	7.25
806.068	7.25
806.614	3.25
807.16	4.25
807.706	9.25
808.252	8.25
808.797	9.25
809.343	7.25
809.889	4.25
810.434	13.25
810.98	7.25
811.525	5.25
812.071	7.25
812.616	3.25
813.161	6.25
813.706	0.25
814.252	5.25
814.797	10.25
815.342	9.25
815.886	5.25
816.431	8.25
816.976	5.25
817.521	7.25
818.066	8.25
818.61	7.25
819.155	6.25
819.699	4.25
820.244	6.25
820.788	7.25
821.332	9.25
821.876	5.25
822.421	6.25
822.965	6.25
823.509	9.25
824.053	7.25
824.597	5.25
825.14	4.25
825.684	2.25
826.228	4.25
826.771	7.25
827.315	5.25
827.859	5.25
828.402	5.25
828.945	0.25
829.489	4.25
830.032	8.25
830.575	4.25
831.118	7.25
831.661	2.25
832.204	5.25
832.747	5.25
833.29	2.25
833.833	5.25
834.376	0.25
834.918	2.25
835.461	6.25
836.004	5.25
836.546	2.25
837.088	3.25
837.631	5.25
838.173	5.25
838.715	6.25
839.257	5.25
839.8	2.25
840.342	6.25
840.884	2.25
841.425	0.25
841.967	10.25
842.509	6.25
843.051	3.25
843.592	5.25
844.134	4.25
844.676	4.25
845.217	4.25
845.758	4.25
846.3	3.25
846.841	5.25
847.382	0.25
847.923	1.25
848.464	5.25
849.005	2.25
849.546	5.25
850.087	2.25
850.628	6.25
851.169	2.25
851.709	2.25
852.25	4.25
852.791	2.25
853.331	1.25
853.871	3.25
854.412	8.25
854.952	5.25
855.492	4.25
856.033	0.25
856.573	4.25
857.113	-0.75
857.653	0.25
858.193	7.25
858.732	4.25
859.272	2.25
859.812	0.25
860.352	4.25
860.891	3.25
861.431	0.25
861.97	-1.75
862.509	1.25
863.049	0.25
863.588	2.25
864.127	1.25
864.666	1.25
865.205	5.25
865.744	2.25
866.283	1.25
866.822	1.25
867.361	7.25
867.9	1.25
868.438	0.25
868.977	2.25
869.516	3.25
870.054	2.25
870.593	1.25
871.131	1.25
871.669	1.25
872.207	0.25
872.746	2.25
873.284	1.25
873.822	-1.75
874.36	1.25
874.898	2.25
875.435	0.25
875.973	1.25
876.511	4.25
877.048	0.25
877.586	4.25
878.124	3.25
878.661	1.25
879.198	-0.75
879.736	2.25
880.273	1.25
880.81	1.25
881.347	-0.75
881.884	2.25
882.421	1.25
882.958	2.25
883.495	1.25
884.032	1.25
884.569	-0.75
885.105	2.25
885.642	1.25
886.178	0.25
886.715	1.25
887.251	2.25
887.788	2.25
888.324	1.25
888.86	0.25
889.396	0.25
889.932	5.25
890.468	-2.75
891.004	1.25
891.54	-0.75
892.076	5.25
892.612	-2.75
893.147	2.25
893.683	-1.75
894.219	3.25
894.754	0.25
895.29	0.25
895.825	-0.75
896.36	-1.75
896.896	5.25
897.431	1.25
897.966	4.25
898.501	-0.75
899.036	-0.75
899.571	2.25
900.106	3.25
900.64	-0.75
901.175	4.25
901.71	3.25
902.244	1.25
902.779	0.25
903.313	1.25
903.848	5.25
904.382	1.25
904.916	2.25
905.45	3.25
905.985	-1.75
906.519	-0.75
907.053	2.25
907.587	1.25
908.12	0.25
908.654	1.25
909.188	1.25
909.722	3.25
910.255	-4.75
910.789	1.25
911.322	2.25
911.856	4.25
912.389	5.25
912.922	-1.75
913.456	4.25
913.989	1.25
914.522	-0.75
915.055	-1.75
915.588	1.25
916.121	1.25
916.653	0.25
917.186	0.25
917.719	1.25
918.252	4.25
918.784	3.25
919.317	-0.75
919.849	-0.75
920.381	4.25
920.914	5.25
921.446	0.25
921.978	1.25
922.51	3.25
923.042	-2.75
923.574	1.25
924.106	-1.75
924.638	-2.75
925.17	2.25
925.701	-0.75
926.233	2.25
926.765	0.25
927.296	2.25
927.828	2.25
928.359	0.25
928.89	3.25
929.422	3.25
929.953	1.25
930.484	-3.75
931.015	0.25
931.546	0.25
932.077	-2.75
932.608	3.25
933.138	-4.75
933.669	1.25
934.2	-2.75
934.73	-2.75
935.261	-1.75
