Data from LOOPyPMA-1_QEP046991__20__18-11-29-757.txt Node

Date: Sun May 11 18:11:29 CEST 2025
User: superuser
Spectrometer: QEP04699
Trigger mode: 4
Integration Time (sec): 1.000000E-1
Scans to average: 1
Electric dark correction enabled: true
Nonlinearity correction enabled: false
Boxcar width: 0
XAxis mode: Wavelengths
Number of Pixels in Spectrum: 1044
>>>>>Begin Spectral Data<<<<<
347.57	11.25
348.165	4.25
348.76	-5.75
349.355	-2.75
349.95	-2.75
350.545	1.25
351.14	0.25
351.735	-0.75
352.33	1.25
352.924	1.25
353.519	1.25
354.114	1.25
354.708	-2.75
355.303	2.25
355.897	-2.75
356.491	-3.75
357.086	-0.75
357.68	-2.75
358.274	1.25
358.868	-3.75
359.462	0.25
360.056	0.25
360.65	-1.75
361.244	-3.75
361.838	0.25
362.431	-0.75
363.025	0.25
363.619	-0.75
364.212	0.25
364.806	-1.75
365.399	-2.75
365.993	-1.75
366.586	-1.75
367.179	-0.75
367.772	0.25
368.366	5.25
368.959	1.25
369.552	-0.75
370.145	-4.75
370.738	-0.75
371.331	-0.75
371.923	-1.75
372.516	-0.75
373.109	-1.75
373.701	1.25
374.294	-0.75
374.887	0.25
375.479	1.25
376.071	-0.75
376.664	-2.75
377.256	-1.75
377.848	1.25
378.44	-3.75
379.033	1.25
379.625	2.25
380.217	-0.75
380.808	-3.75
381.4	-0.75
381.992	1.25
382.584	-2.75
383.176	1.25
383.767	-3.75
384.359	-1.75
384.95	2.25
385.542	-2.75
386.133	3.25
386.725	1.25
387.316	-0.75
387.907	-2.75
388.498	0.25
389.089	-3.75
389.68	-2.75
390.271	-1.75
390.862	-0.75
391.453	-0.75
392.044	2.25
392.635	0.25
393.225	5.25
393.816	-1.75
394.407	-2.75
394.997	1.25
395.588	-1.75
396.178	0.25
396.768	0.25
397.359	3.25
397.949	-1.75
398.539	0.25
399.129	0.25
399.719	0.25
400.309	-0.75
400.899	-1.75
401.489	0.25
402.079	-0.75
402.668	3.25
403.258	0.25
403.848	5.25
404.437	2.25
405.027	1.25
405.616	0.25
406.206	1.25
406.795	3.25
407.384	4.25
407.973	4.25
408.563	6.25
409.152	0.25
409.741	3.25
410.33	3.25
410.919	4.25
411.508	0.25
412.096	6.25
412.685	3.25
413.274	4.25
413.862	8.25
414.451	5.25
415.039	3.25
415.628	9.25
416.216	7.25
416.805	7.25
417.393	12.25
417.981	6.25
418.569	6.25
419.157	7.25
419.745	9.25
420.333	16.25
420.921	18.25
421.509	12.25
422.097	16.25
422.685	17.25
423.272	18.25
423.86	18.25
424.447	18.25
425.035	20.25
425.622	26.25
426.21	23.25
426.797	29.25
427.384	23.25
427.972	27.25
428.559	31.25
429.146	38.25
429.733	37.25
430.32	41.25
430.907	41.25
431.494	46.25
432.08	59.25
432.667	62.25
433.254	59.25
433.84	60.25
434.427	76.25
435.013	77.25
435.6	90.25
436.186	84.25
436.772	93.25
437.359	110.25
437.945	112.25
438.531	121.25
439.117	135.25
439.703	138.25
440.289	157.25
440.875	181.25
441.461	186.25
442.047	197.25
442.632	208.25
443.218	227.25
443.804	256.25
444.389	258.25
444.975	283.25
445.56	314.25
446.145	323.25
446.731	357.25
447.316	368.25
447.901	397.25
448.486	441.25
449.071	458.25
449.656	494.25
450.241	525.25
450.826	581.25
451.411	603.25
451.996	649.25
452.58	696.25
453.165	769.25
453.75	824.25
454.334	882.25
454.919	947.25
455.503	1019.25
456.087	1100.25
456.672	1205.25
457.256	1249.25
457.84	1362.25
458.424	1460.25
459.008	1564.25
459.592	1634.25
460.176	1756.25
460.76	1859.25
461.344	1887.25
461.927	2011.25
462.511	2061.25
463.095	2137.25
463.678	2161.25
464.262	2199.25
464.845	2204.25
465.429	2241.25
466.012	2225.25
466.595	2173.25
467.178	2110.25
467.762	2066.25
468.345	1984.25
468.928	1842.25
469.511	1783.25
470.094	1656.25
470.676	1585.25
471.259	1450.25
471.842	1404.25
472.425	1286.25
473.007	1237.25
473.59	1168.25
474.172	1080.25
474.755	992.25
475.337	913.25
475.919	878.25
476.502	808.25
477.084	768.25
477.666	721.25
478.248	678.25
478.83	657.25
479.412	627.25
479.994	600.25
480.576	563.25
481.157	534.25
481.739	524.25
482.321	488.25
482.902	464.25
483.484	447.25
484.065	414.25
484.647	383.25
485.228	364.25
485.809	347.25
486.391	325.25
486.972	294.25
487.553	289.25
488.134	259.25
488.715	235.25
489.296	235.25
489.877	216.25
490.458	204.25
491.038	174.25
491.619	171.25
492.2	163.25
492.78	161.25
493.361	151.25
493.941	150.25
494.522	144.25
495.102	127.25
495.682	134.25
496.262	125.25
496.843	122.25
497.423	117.25
498.003	103.25
498.583	115.25
499.163	99.25
499.742	99.25
500.322	89.25
500.902	99.25
501.482	86.25
502.061	92.25
502.641	94.25
503.22	83.25
503.8	82.25
504.379	79.25
504.958	77.25
505.538	84.25
506.117	79.25
506.696	79.25
507.275	74.25
507.854	77.25
508.433	76.25
509.012	77.25
509.591	82.25
510.169	82.25
510.748	83.25
511.327	79.25
511.905	90.25
512.484	90.25
513.062	97.25
513.641	100.25
514.219	97.25
514.797	110.25
515.375	122.25
515.954	116.25
516.532	126.25
517.11	137.25
517.688	142.25
518.266	146.25
518.843	159.25
519.421	164.25
519.999	188.25
520.577	177.25
521.154	203.25
521.732	190.25
522.309	211.25
522.887	220.25
523.464	220.25
524.041	247.25
524.619	246.25
525.196	261.25
525.773	269.25
526.35	268.25
526.927	279.25
527.504	276.25
528.081	299.25
528.658	294.25
529.235	316.25
529.811	305.25
530.388	316.25
530.964	315.25
531.541	319.25
532.117	312.25
532.694	311.25
533.27	303.25
533.846	303.25
534.423	310.25
534.999	312.25
535.575	293.25
536.151	309.25
536.727	299.25
537.303	302.25
537.879	304.25
538.455	307.25
539.03	292.25
539.606	300.25
540.182	292.25
540.757	294.25
541.333	295.25
541.908	297.25
542.483	284.25
543.059	281.25
543.634	260.25
544.209	286.25
544.784	289.25
545.359	281.25
545.934	271.25
546.509	276.25
547.084	272.25
547.659	254.25
548.234	264.25
548.808	271.25
549.383	265.25
549.958	258.25
550.532	253.25
551.107	254.25
551.681	246.25
552.255	257.25
552.83	248.25
553.404	251.25
553.978	252.25
554.552	236.25
555.126	252.25
555.7	252.25
556.274	248.25
556.848	247.25
557.422	246.25
557.995	256.25
558.569	262.25
559.143	262.25
559.716	264.25
560.29	267.25
560.863	271.25
561.437	277.25
562.01	274.25
562.583	293.25
563.156	284.25
563.729	275.25
564.302	288.25
564.875	294.25
565.448	305.25
566.021	301.25
566.594	302.25
567.167	313.25
567.74	309.25
568.312	309.25
568.885	320.25
569.457	315.25
570.03	311.25
570.602	323.25
571.174	312.25
571.747	318.25
572.319	324.25
572.891	321.25
573.463	326.25
574.035	326.25
574.607	326.25
575.179	328.25
575.751	308.25
576.323	307.25
576.894	324.25
577.466	319.25
578.038	319.25
578.609	317.25
579.181	314.25
579.752	323.25
580.323	317.25
580.895	330.25
581.466	324.25
582.037	327.25
582.608	314.25
583.179	325.25
583.75	325.25
584.321	348.25
584.892	325.25
585.463	338.25
586.033	335.25
586.604	329.25
587.175	336.25
587.745	338.25
588.316	328.25
588.886	341.25
589.457	345.25
590.027	335.25
590.597	326.25
591.167	321.25
591.737	335.25
592.308	325.25
592.878	333.25
593.447	324.25
594.017	329.25
594.587	328.25
595.157	323.25
595.727	324.25
596.296	323.25
596.866	313.25
597.435	302.25
598.005	306.25
598.574	307.25
599.143	314.25
599.713	317.25
600.282	302.25
600.851	313.25
601.42	299.25
601.989	305.25
602.558	300.25
603.127	303.25
603.696	306.25
604.265	303.25
604.833	284.25
605.402	295.25
605.971	290.25
606.539	285.25
607.108	300.25
607.676	280.25
608.244	295.25
608.813	277.25
609.381	293.25
609.949	290.25
610.517	295.25
611.085	278.25
611.653	291.25
612.221	281.25
612.789	293.25
613.357	292.25
613.924	299.25
614.492	296.25
615.06	283.25
615.627	272.25
616.195	286.25
616.762	272.25
617.329	272.25
617.897	281.25
618.464	276.25
619.031	278.25
619.598	275.25
620.165	274.25
620.732	274.25
621.299	272.25
621.866	277.25
622.433	285.25
623	270.25
623.566	266.25
624.133	267.25
624.7	270.25
625.266	268.25
625.832	273.25
626.399	264.25
626.965	274.25
627.531	260.25
628.098	264.25
628.664	264.25
629.23	260.25
629.796	258.25
630.362	262.25
630.928	248.25
631.493	255.25
632.059	249.25
632.625	245.25
633.19	243.25
633.756	260.25
634.322	247.25
634.887	243.25
635.452	239.25
636.018	235.25
636.583	237.25
637.148	231.25
637.713	235.25
638.278	246.25
638.843	228.25
639.408	232.25
639.973	230.25
640.538	238.25
641.103	215.25
641.667	226.25
642.232	221.25
642.797	214.25
643.361	220.25
643.926	221.25
644.49	216.25
645.054	218.25
645.619	210.25
646.183	202.25
646.747	209.25
647.311	200.25
647.875	200.25
648.439	191.25
649.003	192.25
649.567	197.25
650.131	200.25
650.694	195.25
651.258	200.25
651.822	194.25
652.385	189.25
652.949	189.25
653.512	185.25
654.075	187.25
654.639	181.25
655.202	179.25
655.765	177.25
656.328	163.25
656.891	180.25
657.454	175.25
658.017	174.25
658.58	173.25
659.143	172.25
659.705	173.25
660.268	157.25
660.83	165.25
661.393	155.25
661.955	157.25
662.518	162.25
663.08	166.25
663.643	161.25
664.205	164.25
664.767	157.25
665.329	162.25
665.891	155.25
666.453	153.25
667.015	158.25
667.577	147.25
668.139	159.25
668.7	148.25
669.262	143.25
669.824	144.25
670.385	145.25
670.947	138.25
671.508	141.25
672.069	138.25
672.631	138.25
673.192	133.25
673.753	136.25
674.314	123.25
674.875	133.25
675.436	137.25
675.997	133.25
676.558	127.25
677.119	134.25
677.679	126.25
678.24	135.25
678.801	121.25
679.361	127.25
679.922	131.25
680.482	118.25
681.042	123.25
681.603	122.25
682.163	120.25
682.723	130.25
683.283	124.25
683.843	109.25
684.403	125.25
684.963	109.25
685.523	108.25
686.083	116.25
686.642	112.25
687.202	111.25
687.762	110.25
688.321	108.25
688.881	105.25
689.44	105.25
690	109.25
690.559	111.25
691.118	102.25
691.677	104.25
692.236	91.25
692.795	98.25
693.354	97.25
693.913	98.25
694.472	98.25
695.031	90.25
695.59	87.25
696.148	89.25
696.707	87.25
697.265	90.25
697.824	87.25
698.382	86.25
698.941	82.25
699.499	83.25
700.057	86.25
700.615	84.25
701.173	80.25
701.731	78.25
702.289	79.25
702.847	74.25
703.405	78.25
703.963	68.25
704.521	74.25
705.078	74.25
705.636	68.25
706.194	79.25
706.751	78.25
707.308	69.25
707.866	66.25
708.423	65.25
708.98	72.25
709.537	68.25
710.095	60.25
710.652	59.25
711.209	60.25
711.765	65.25
712.322	65.25
712.879	62.25
713.436	63.25
713.992	50.25
714.549	60.25
715.106	52.25
715.662	54.25
716.218	63.25
716.775	49.25
717.331	52.25
717.887	52.25
718.443	54.25
719	59.25
719.556	49.25
720.112	51.25
720.667	47.25
721.223	53.25
721.779	47.25
722.335	48.25
722.89	48.25
723.446	39.25
724.002	50.25
724.557	45.25
725.112	45.25
725.668	47.25
726.223	43.25
726.778	42.25
727.333	44.25
727.888	43.25
728.443	36.25
728.998	44.25
729.553	40.25
730.108	36.25
730.663	36.25
731.218	37.25
731.772	37.25
732.327	38.25
732.881	38.25
733.436	32.25
733.99	38.25
734.545	42.25
735.099	34.25
735.653	32.25
736.207	34.25
736.761	33.25
737.315	34.25
737.869	29.25
738.423	37.25
738.977	35.25
739.531	32.25
740.084	34.25
740.638	33.25
741.192	29.25
741.745	33.25
742.299	28.25
742.852	29.25
743.405	32.25
743.959	28.25
744.512	29.25
745.065	28.25
745.618	28.25
746.171	30.25
746.724	28.25
747.277	27.25
747.83	22.25
748.382	28.25
748.935	33.25
749.488	23.25
750.04	29.25
750.593	24.25
751.145	29.25
751.698	24.25
752.25	21.25
752.802	22.25
753.354	24.25
753.906	33.25
754.458	19.25
755.01	24.25
755.562	19.25
756.114	22.25
756.666	23.25
757.218	23.25
757.769	22.25
758.321	19.25
758.873	18.25
759.424	19.25
759.975	24.25
760.527	20.25
761.078	18.25
761.629	17.25
762.181	19.25
762.732	17.25
763.283	16.25
763.834	18.25
764.385	14.25
764.935	13.25
765.486	21.25
766.037	17.25
766.588	21.25
767.138	19.25
767.689	16.25
768.239	16.25
768.79	16.25
769.34	19.25
769.89	16.25
770.44	16.25
770.991	16.25
771.541	12.25
772.091	14.25
772.641	12.25
773.191	16.25
773.74	20.25
774.29	18.25
774.84	16.25
775.39	13.25
775.939	14.25
776.489	13.25
777.038	14.25
777.588	8.25
778.137	10.25
778.686	9.25
779.235	12.25
779.784	16.25
780.334	14.25
780.883	12.25
781.431	9.25
781.98	11.25
782.529	15.25
783.078	11.25
783.627	12.25
784.175	7.25
784.724	13.25
785.272	10.25
785.821	16.25
786.369	9.25
786.917	9.25
787.466	11.25
788.014	9.25
788.562	7.25
789.11	9.25
789.658	12.25
790.206	6.25
790.754	7.25
791.302	10.25
791.849	10.25
792.397	10.25
792.945	7.25
793.492	10.25
794.04	11.25
794.587	6.25
795.134	7.25
795.682	9.25
796.229	7.25
796.776	10.25
797.323	11.25
797.87	10.25
798.417	7.25
798.964	9.25
799.511	8.25
800.058	6.25
800.604	6.25
801.151	7.25
801.698	9.25
802.244	7.25
802.791	6.25
803.337	7.25
803.883	9.25
804.43	7.25
804.976	6.25
805.522	7.25
806.068	8.25
806.614	2.25
807.16	6.25
807.706	4.25
808.252	5.25
808.797	3.25
809.343	7.25
809.889	5.25
810.434	5.25
810.98	8.25
811.525	5.25
812.071	2.25
812.616	8.25
813.161	2.25
813.706	6.25
814.252	9.25
814.797	1.25
815.342	5.25
815.886	4.25
816.431	5.25
816.976	0.25
817.521	6.25
818.066	9.25
818.61	0.25
819.155	3.25
819.699	8.25
820.244	3.25
820.788	3.25
821.332	-1.75
821.876	6.25
822.421	4.25
822.965	5.25
823.509	7.25
824.053	4.25
824.597	3.25
825.14	6.25
825.684	2.25
826.228	5.25
826.771	3.25
827.315	4.25
827.859	5.25
828.402	4.25
828.945	0.25
829.489	4.25
830.032	1.25
830.575	2.25
831.118	0.25
831.661	2.25
832.204	-0.75
832.747	1.25
833.29	-0.75
833.833	2.25
834.376	2.25
834.918	5.25
835.461	4.25
836.004	1.25
836.546	2.25
837.088	0.25
837.631	7.25
838.173	2.25
838.715	1.25
839.257	0.25
839.8	-1.75
840.342	3.25
840.884	-0.75
841.425	1.25
841.967	5.25
842.509	2.25
843.051	2.25
843.592	-0.75
844.134	-1.75
844.676	1.25
845.217	4.25
845.758	2.25
846.3	1.25
846.841	3.25
847.382	3.25
847.923	1.25
848.464	0.25
849.005	1.25
849.546	2.25
850.087	0.25
850.628	4.25
851.169	0.25
851.709	4.25
852.25	-1.75
852.791	1.25
853.331	2.25
853.871	1.25
854.412	0.25
854.952	-0.75
855.492	4.25
856.033	1.25
856.573	2.25
857.113	-0.75
857.653	1.25
858.193	1.25
858.732	0.25
859.272	-1.75
859.812	3.25
860.352	1.25
860.891	-1.75
861.431	3.25
861.97	-0.75
862.509	-0.75
863.049	-0.75
863.588	3.25
864.127	-2.75
864.666	1.25
865.205	4.25
865.744	1.25
866.283	0.25
866.822	0.25
867.361	0.25
867.9	2.25
868.438	-2.75
868.977	3.25
869.516	1.25
870.054	-0.75
870.593	2.25
871.131	2.25
871.669	-3.75
872.207	1.25
872.746	0.25
873.284	-2.75
873.822	-1.75
874.36	3.25
874.898	-3.75
875.435	-2.75
875.973	-1.75
876.511	-0.75
877.048	-3.75
877.586	-0.75
878.124	-1.75
878.661	-1.75
879.198	0.25
879.736	5.25
880.273	0.25
880.81	-1.75
881.347	1.25
881.884	-1.75
882.421	2.25
882.958	-2.75
883.495	-0.75
884.032	2.25
884.569	-0.75
885.105	-3.75
885.642	1.25
886.178	-2.75
886.715	5.25
887.251	2.25
887.788	1.25
888.324	2.25
888.86	0.25
889.396	-1.75
889.932	-0.75
890.468	-3.75
891.004	0.25
891.54	-4.75
892.076	-0.75
892.612	-2.75
893.147	0.25
893.683	-2.75
894.219	0.25
894.754	0.25
895.29	1.25
895.825	-1.75
896.36	3.25
896.896	-2.75
897.431	-2.75
897.966	0.25
898.501	-4.75
899.036	-5.75
899.571	2.25
900.106	0.25
900.64	-0.75
901.175	-3.75
901.71	0.25
902.244	1.25
902.779	-0.75
903.313	-0.75
903.848	1.25
904.382	0.25
904.916	0.25
905.45	0.25
905.985	-0.75
906.519	2.25
907.053	-2.75
907.587	-4.75
908.12	-1.75
908.654	1.25
909.188	-0.75
909.722	3.25
910.255	1.25
910.789	-1.75
911.322	2.25
911.856	-2.75
912.389	-6.75
912.922	-0.75
913.456	-1.75
913.989	-5.75
914.522	-1.75
915.055	1.25
915.588	1.25
916.121	-1.75
916.653	-5.75
917.186	-1.75
917.719	-2.75
918.252	-0.75
918.784	-2.75
919.317	-0.75
919.849	0.25
920.381	-2.75
920.914	-0.75
921.446	-0.75
921.978	-3.75
922.51	-1.75
923.042	0.25
923.574	-3.75
924.106	-2.75
924.638	-1.75
925.17	-3.75
925.701	-1.75
926.233	-2.75
926.765	-2.75
927.296	-3.75
927.828	1.25
928.359	-2.75
928.89	2.25
929.422	-2.75
929.953	-0.75
930.484	-0.75
931.015	-2.75
931.546	-0.75
932.077	-0.75
932.608	0.25
933.138	-1.75
933.669	-0.75
934.2	-2.75
934.73	-1.75
935.261	-1.75
