Data from LOOPyPMA-1_QEP046991__24__18-11-33-758.txt Node

Date: Sun May 11 18:11:33 CEST 2025
User: superuser
Spectrometer: QEP04699
Trigger mode: 4
Integration Time (sec): 1.000000E-1
Scans to average: 1
Electric dark correction enabled: true
Nonlinearity correction enabled: false
Boxcar width: 0
XAxis mode: Wavelengths
Number of Pixels in Spectrum: 1044
>>>>>Begin Spectral Data<<<<<
347.57	9.62
348.165	0.62
348.76	0.62
349.355	-1.38
349.95	1.62
350.545	-3.38
351.14	4.62
351.735	-1.38
352.33	-1.38
352.924	-1.38
353.519	2.62
354.114	3.62
354.708	2.62
355.303	-0.38
355.897	0.62
356.491	2.62
357.086	-1.38
357.68	0.62
358.274	-0.38
358.868	0.62
359.462	2.62
360.056	-0.38
360.65	-0.38
361.244	4.62
361.838	2.62
362.431	0.62
363.025	0.62
363.619	3.62
364.212	3.62
364.806	3.62
365.399	-0.38
365.993	1.62
366.586	-0.38
367.179	-0.38
367.772	1.62
368.366	0.62
368.959	-0.38
369.552	3.62
370.145	-2.38
370.738	4.62
371.331	7.62
371.923	-3.38
372.516	2.62
373.109	7.62
373.701	2.62
374.294	2.62
374.887	-0.38
375.479	2.62
376.071	2.62
376.664	2.62
377.256	2.62
377.848	2.62
378.44	-1.38
379.033	0.62
379.625	0.62
380.217	-0.38
380.808	-0.38
381.4	-2.38
381.992	2.62
382.584	1.62
383.176	-0.38
383.767	3.62
384.359	-0.38
384.95	0.62
385.542	5.62
386.133	-2.38
386.725	1.62
387.316	3.62
387.907	-1.38
388.498	-0.38
389.089	1.62
389.68	2.62
390.271	0.62
390.862	2.62
391.453	4.62
392.044	2.62
392.635	4.62
393.225	4.62
393.816	2.62
394.407	2.62
394.997	0.62
395.588	0.62
396.178	0.62
396.768	8.62
397.359	3.62
397.949	1.62
398.539	0.62
399.129	2.62
399.719	4.62
400.309	0.62
400.899	3.62
401.489	2.62
402.079	4.62
402.668	5.62
403.258	3.62
403.848	6.62
404.437	3.62
405.027	4.62
405.616	2.62
406.206	2.62
406.795	4.62
407.384	3.62
407.973	1.62
408.563	2.62
409.152	4.62
409.741	9.62
410.33	6.62
410.919	2.62
411.508	8.62
412.096	7.62
412.685	4.62
413.274	8.62
413.862	9.62
414.451	9.62
415.039	10.62
415.628	12.62
416.216	10.62
416.805	10.62
417.393	10.62
417.981	11.62
418.569	9.62
419.157	10.62
419.745	17.62
420.333	15.62
420.921	13.62
421.509	11.62
422.097	13.62
422.685	18.62
423.272	17.62
423.86	24.62
424.447	25.62
425.035	27.62
425.622	22.62
426.21	26.62
426.797	29.62
427.384	29.62
427.972	35.62
428.559	37.62
429.146	34.62
429.733	40.62
430.32	41.62
430.907	50.62
431.494	48.62
432.08	57.62
432.667	57.62
433.254	64.62
433.84	67.62
434.427	66.62
435.013	80.62
435.6	82.62
436.186	86.62
436.772	101.62
437.359	100.62
437.945	114.62
438.531	125.62
439.117	131.62
439.703	138.62
440.289	158.62
440.875	166.62
441.461	187.62
442.047	188.62
442.632	213.62
443.218	219.62
443.804	249.62
444.389	271.62
444.975	294.62
445.56	302.62
446.145	319.62
446.731	346.62
447.316	363.62
447.901	398.62
448.486	438.62
449.071	457.62
449.656	495.62
450.241	527.62
450.826	580.62
451.411	608.62
451.996	668.62
452.58	697.62
453.165	767.62
453.75	826.62
454.334	877.62
454.919	948.62
455.503	1028.62
456.087	1105.62
456.672	1196.62
457.256	1282.62
457.84	1375.62
458.424	1463.62
459.008	1541.62
459.592	1646.62
460.176	1766.62
460.76	1841.62
461.344	1916.62
461.927	1989.62
462.511	2067.62
463.095	2139.62
463.678	2192.62
464.262	2198.62
464.845	2251.62
465.429	2228.62
466.012	2185.62
466.595	2201.62
467.178	2116.62
467.762	2054.62
468.345	1970.62
468.928	1898.62
469.511	1784.62
470.094	1683.62
470.676	1611.62
471.259	1494.62
471.842	1424.62
472.425	1298.62
473.007	1230.62
473.59	1159.62
474.172	1077.62
474.755	1029.62
475.337	946.62
475.919	874.62
476.502	828.62
477.084	781.62
477.666	730.62
478.248	688.62
478.83	677.62
479.412	627.62
479.994	603.62
480.576	576.62
481.157	536.62
481.739	517.62
482.321	479.62
482.902	456.62
483.484	443.62
484.065	406.62
484.647	388.62
485.228	349.62
485.809	333.62
486.391	327.62
486.972	295.62
487.553	285.62
488.134	275.62
488.715	257.62
489.296	228.62
489.877	217.62
490.458	208.62
491.038	187.62
491.619	174.62
492.2	175.62
492.78	161.62
493.361	148.62
493.941	143.62
494.522	142.62
495.102	131.62
495.682	129.62
496.262	126.62
496.843	119.62
497.423	120.62
498.003	111.62
498.583	114.62
499.163	105.62
499.742	108.62
500.322	102.62
500.902	103.62
501.482	99.62
502.061	95.62
502.641	92.62
503.22	89.62
503.8	90.62
504.379	78.62
504.958	78.62
505.538	82.62
506.117	84.62
506.696	79.62
507.275	70.62
507.854	86.62
508.433	83.62
509.012	79.62
509.591	81.62
510.169	82.62
510.748	86.62
511.327	85.62
511.905	80.62
512.484	91.62
513.062	97.62
513.641	98.62
514.219	100.62
514.797	118.62
515.375	118.62
515.954	116.62
516.532	131.62
517.11	135.62
517.688	144.62
518.266	153.62
518.843	160.62
519.421	165.62
519.999	175.62
520.577	179.62
521.154	197.62
521.732	206.62
522.309	220.62
522.887	223.62
523.464	232.62
524.041	245.62
524.619	248.62
525.196	254.62
525.773	266.62
526.35	278.62
526.927	285.62
527.504	286.62
528.081	291.62
528.658	289.62
529.235	296.62
529.811	294.62
530.388	298.62
530.964	303.62
531.541	309.62
532.117	309.62
532.694	314.62
533.27	317.62
533.846	309.62
534.423	308.62
534.999	315.62
535.575	307.62
536.151	308.62
536.727	292.62
537.303	314.62
537.879	306.62
538.455	292.62
539.03	293.62
539.606	293.62
540.182	298.62
540.757	299.62
541.333	288.62
541.908	270.62
542.483	277.62
543.059	282.62
543.634	268.62
544.209	280.62
544.784	274.62
545.359	282.62
545.934	264.62
546.509	268.62
547.084	264.62
547.659	262.62
548.234	268.62
548.808	261.62
549.383	254.62
549.958	253.62
550.532	257.62
551.107	245.62
551.681	252.62
552.255	252.62
552.83	240.62
553.404	250.62
553.978	241.62
554.552	244.62
555.126	244.62
555.7	240.62
556.274	244.62
556.848	243.62
557.422	253.62
557.995	244.62
558.569	249.62
559.143	257.62
559.716	258.62
560.29	263.62
560.863	265.62
561.437	266.62
562.01	272.62
562.583	277.62
563.156	275.62
563.729	268.62
564.302	283.62
564.875	285.62
565.448	290.62
566.021	286.62
566.594	302.62
567.167	293.62
567.74	312.62
568.312	307.62
568.885	313.62
569.457	297.62
570.03	316.62
570.602	302.62
571.174	319.62
571.747	319.62
572.319	329.62
572.891	321.62
573.463	313.62
574.035	304.62
574.607	317.62
575.179	315.62
575.751	311.62
576.323	312.62
576.894	314.62
577.466	326.62
578.038	314.62
578.609	307.62
579.181	317.62
579.752	316.62
580.323	309.62
580.895	317.62
581.466	314.62
582.037	310.62
582.608	310.62
583.179	313.62
583.75	331.62
584.321	321.62
584.892	317.62
585.463	326.62
586.033	325.62
586.604	329.62
587.175	328.62
587.745	324.62
588.316	335.62
588.886	328.62
589.457	335.62
590.027	344.62
590.597	335.62
591.167	321.62
591.737	322.62
592.308	331.62
592.878	328.62
593.447	330.62
594.017	322.62
594.587	314.62
595.157	309.62
595.727	306.62
596.296	304.62
596.866	316.62
597.435	315.62
598.005	303.62
598.574	313.62
599.143	295.62
599.713	306.62
600.282	300.62
600.851	302.62
601.42	300.62
601.989	304.62
602.558	296.62
603.127	292.62
603.696	296.62
604.265	299.62
604.833	287.62
605.402	288.62
605.971	289.62
606.539	288.62
607.108	281.62
607.676	293.62
608.244	287.62
608.813	291.62
609.381	289.62
609.949	269.62
610.517	288.62
611.085	282.62
611.653	293.62
612.221	280.62
612.789	295.62
613.357	270.62
613.924	286.62
614.492	278.62
615.06	266.62
615.627	266.62
616.195	278.62
616.762	272.62
617.329	266.62
617.897	272.62
618.464	268.62
619.031	269.62
619.598	276.62
620.165	260.62
620.732	275.62
621.299	268.62
621.866	274.62
622.433	275.62
623	274.62
623.566	253.62
624.133	258.62
624.7	274.62
625.266	266.62
625.832	268.62
626.399	268.62
626.965	269.62
627.531	263.62
628.098	252.62
628.664	248.62
629.23	259.62
629.796	251.62
630.362	262.62
630.928	251.62
631.493	247.62
632.059	267.62
632.625	251.62
633.19	245.62
633.756	239.62
634.322	242.62
634.887	239.62
635.452	230.62
636.018	238.62
636.583	239.62
637.148	233.62
637.713	234.62
638.278	236.62
638.843	233.62
639.408	226.62
639.973	220.62
640.538	226.62
641.103	234.62
641.667	225.62
642.232	220.62
642.797	209.62
643.361	213.62
643.926	210.62
644.49	213.62
645.054	207.62
645.619	214.62
646.183	208.62
646.747	205.62
647.311	199.62
647.875	202.62
648.439	198.62
649.003	196.62
649.567	199.62
650.131	190.62
650.694	198.62
651.258	189.62
651.822	187.62
652.385	190.62
652.949	193.62
653.512	181.62
654.075	193.62
654.639	180.62
655.202	180.62
655.765	173.62
656.328	174.62
656.891	174.62
657.454	177.62
658.017	175.62
658.58	172.62
659.143	165.62
659.705	168.62
660.268	171.62
660.83	166.62
661.393	163.62
661.955	160.62
662.518	162.62
663.08	155.62
663.643	148.62
664.205	159.62
664.767	156.62
665.329	163.62
665.891	145.62
666.453	155.62
667.015	140.62
667.577	149.62
668.139	143.62
668.7	140.62
669.262	143.62
669.824	143.62
670.385	142.62
670.947	140.62
671.508	143.62
672.069	135.62
672.631	131.62
673.192	134.62
673.753	139.62
674.314	134.62
674.875	123.62
675.436	125.62
675.997	128.62
676.558	131.62
677.119	136.62
677.679	121.62
678.24	130.62
678.801	126.62
679.361	117.62
679.922	122.62
680.482	127.62
681.042	120.62
681.603	119.62
682.163	124.62
682.723	122.62
683.283	122.62
683.843	121.62
684.403	121.62
684.963	112.62
685.523	108.62
686.083	115.62
686.642	110.62
687.202	111.62
687.762	111.62
688.321	109.62
688.881	109.62
689.44	102.62
690	110.62
690.559	99.62
691.118	104.62
691.677	97.62
692.236	98.62
692.795	98.62
693.354	101.62
693.913	95.62
694.472	96.62
695.031	103.62
695.59	93.62
696.148	89.62
696.707	89.62
697.265	85.62
697.824	83.62
698.382	95.62
698.941	88.62
699.499	85.62
700.057	79.62
700.615	83.62
701.173	73.62
701.731	79.62
702.289	76.62
702.847	74.62
703.405	81.62
703.963	75.62
704.521	74.62
705.078	68.62
705.636	73.62
706.194	72.62
706.751	74.62
707.308	70.62
707.866	69.62
708.423	68.62
708.98	64.62
709.537	66.62
710.095	62.62
710.652	61.62
711.209	70.62
711.765	64.62
712.322	61.62
712.879	58.62
713.436	66.62
713.992	57.62
714.549	59.62
715.106	56.62
715.662	61.62
716.218	53.62
716.775	58.62
717.331	57.62
717.887	53.62
718.443	49.62
719	57.62
719.556	51.62
720.112	58.62
720.667	56.62
721.223	51.62
721.779	58.62
722.335	51.62
722.89	49.62
723.446	52.62
724.002	47.62
724.557	44.62
725.112	43.62
725.668	47.62
726.223	49.62
726.778	44.62
727.333	37.62
727.888	44.62
728.443	46.62
728.998	40.62
729.553	41.62
730.108	41.62
730.663	40.62
731.218	37.62
731.772	41.62
732.327	42.62
732.881	30.62
733.436	43.62
733.99	31.62
734.545	39.62
735.099	42.62
735.653	39.62
736.207	38.62
736.761	38.62
737.315	35.62
737.869	36.62
738.423	37.62
738.977	37.62
739.531	32.62
740.084	37.62
740.638	28.62
741.192	37.62
741.745	36.62
742.299	32.62
742.852	30.62
743.405	36.62
743.959	30.62
744.512	34.62
745.065	27.62
745.618	36.62
746.171	33.62
746.724	26.62
747.277	23.62
747.83	27.62
748.382	27.62
748.935	26.62
749.488	26.62
750.04	26.62
750.593	29.62
751.145	28.62
751.698	22.62
752.25	26.62
752.802	26.62
753.354	27.62
753.906	23.62
754.458	20.62
755.01	22.62
755.562	26.62
756.114	21.62
756.666	23.62
757.218	23.62
757.769	24.62
758.321	22.62
758.873	24.62
759.424	16.62
759.975	23.62
760.527	19.62
761.078	19.62
761.629	21.62
762.181	14.62
762.732	20.62
763.283	22.62
763.834	20.62
764.385	18.62
764.935	17.62
765.486	18.62
766.037	16.62
766.588	18.62
767.138	14.62
767.689	13.62
768.239	19.62
768.79	20.62
769.34	17.62
769.89	18.62
770.44	14.62
770.991	18.62
771.541	18.62
772.091	15.62
772.641	18.62
773.191	19.62
773.74	15.62
774.29	13.62
774.84	21.62
775.39	15.62
775.939	18.62
776.489	12.62
777.038	11.62
777.588	16.62
778.137	13.62
778.686	11.62
779.235	13.62
779.784	19.62
780.334	15.62
780.883	13.62
781.431	14.62
781.98	14.62
782.529	9.62
783.078	9.62
783.627	12.62
784.175	17.62
784.724	16.62
785.272	12.62
785.821	11.62
786.369	11.62
786.917	10.62
787.466	16.62
788.014	16.62
788.562	11.62
789.11	13.62
789.658	14.62
790.206	9.62
790.754	12.62
791.302	10.62
791.849	9.62
792.397	13.62
792.945	6.62
793.492	10.62
794.04	11.62
794.587	13.62
795.134	10.62
795.682	13.62
796.229	11.62
796.776	7.62
797.323	13.62
797.87	15.62
798.417	10.62
798.964	7.62
799.511	13.62
800.058	10.62
800.604	13.62
801.151	8.62
801.698	11.62
802.244	8.62
802.791	8.62
803.337	4.62
803.883	4.62
804.43	9.62
804.976	7.62
805.522	4.62
806.068	8.62
806.614	6.62
807.16	8.62
807.706	5.62
808.252	6.62
808.797	6.62
809.343	4.62
809.889	4.62
810.434	12.62
810.98	7.62
811.525	9.62
812.071	7.62
812.616	10.62
813.161	6.62
813.706	5.62
814.252	2.62
814.797	5.62
815.342	8.62
815.886	5.62
816.431	3.62
816.976	2.62
817.521	9.62
818.066	6.62
818.61	4.62
819.155	6.62
819.699	7.62
820.244	4.62
820.788	5.62
821.332	5.62
821.876	9.62
822.421	5.62
822.965	6.62
823.509	6.62
824.053	5.62
824.597	8.62
825.14	4.62
825.684	6.62
826.228	3.62
826.771	9.62
827.315	4.62
827.859	5.62
828.402	5.62
828.945	5.62
829.489	3.62
830.032	5.62
830.575	2.62
831.118	3.62
831.661	4.62
832.204	6.62
832.747	1.62
833.29	4.62
833.833	3.62
834.376	4.62
834.918	3.62
835.461	4.62
836.004	3.62
836.546	6.62
837.088	3.62
837.631	3.62
838.173	5.62
838.715	4.62
839.257	0.62
839.8	2.62
840.342	3.62
840.884	0.62
841.425	6.62
841.967	1.62
842.509	5.62
843.051	0.62
843.592	2.62
844.134	6.62
844.676	5.62
845.217	4.62
845.758	2.62
846.3	4.62
846.841	-0.38
847.382	2.62
847.923	3.62
848.464	7.62
849.005	3.62
849.546	1.62
850.087	2.62
850.628	3.62
851.169	3.62
851.709	1.62
852.25	3.62
852.791	4.62
853.331	5.62
853.871	3.62
854.412	2.62
854.952	0.62
855.492	3.62
856.033	0.62
856.573	1.62
857.113	-0.38
857.653	1.62
858.193	5.62
858.732	0.62
859.272	1.62
859.812	3.62
860.352	4.62
860.891	1.62
861.431	4.62
861.97	4.62
862.509	2.62
863.049	3.62
863.588	3.62
864.127	4.62
864.666	1.62
865.205	-2.38
865.744	5.62
866.283	1.62
866.822	3.62
867.361	3.62
867.9	4.62
868.438	-0.38
868.977	-0.38
869.516	0.62
870.054	1.62
870.593	2.62
871.131	-1.38
871.669	-0.38
872.207	3.62
872.746	-0.38
873.284	4.62
873.822	4.62
874.36	0.62
874.898	1.62
875.435	1.62
875.973	0.62
876.511	3.62
877.048	0.62
877.586	3.62
878.124	-0.38
878.661	2.62
879.198	4.62
879.736	-0.38
880.273	5.62
880.81	1.62
881.347	0.62
881.884	-0.38
882.421	-0.38
882.958	4.62
883.495	1.62
884.032	-0.38
884.569	0.62
885.105	0.62
885.642	-1.38
886.178	0.62
886.715	-2.38
887.251	2.62
887.788	2.62
888.324	4.62
888.86	-1.38
889.396	2.62
889.932	3.62
890.468	1.62
891.004	4.62
891.54	-4.38
892.076	4.62
892.612	2.62
893.147	-0.38
893.683	0.62
894.219	1.62
894.754	4.62
895.29	2.62
895.825	1.62
896.36	2.62
896.896	0.62
897.431	-0.38
897.966	-0.38
898.501	1.62
899.036	0.62
899.571	2.62
900.106	5.62
900.64	2.62
901.175	1.62
901.71	-0.38
902.244	2.62
902.779	4.62
903.313	3.62
903.848	3.62
904.382	4.62
904.916	4.62
905.45	2.62
905.985	0.62
906.519	-1.38
907.053	3.62
907.587	2.62
908.12	3.62
908.654	0.62
909.188	-0.38
909.722	2.62
910.255	4.62
910.789	0.62
911.322	5.62
911.856	2.62
912.389	4.62
912.922	4.62
913.456	-0.38
913.989	-0.38
914.522	1.62
915.055	1.62
915.588	-1.38
916.121	-0.38
916.653	-1.38
917.186	2.62
917.719	1.62
918.252	1.62
918.784	-0.38
919.317	1.62
919.849	1.62
920.381	1.62
920.914	1.62
921.446	1.62
921.978	-4.38
922.51	-1.38
923.042	1.62
923.574	1.62
924.106	0.62
924.638	2.62
925.17	4.62
925.701	3.62
926.233	2.62
926.765	2.62
927.296	3.62
927.828	2.62
928.359	-1.38
928.89	3.62
929.422	3.62
929.953	1.62
930.484	1.62
931.015	0.62
931.546	-1.38
932.077	4.62
932.608	1.62
933.138	0.62
933.669	-3.38
934.2	-3.38
934.73	-2.38
935.261	-0.38
