Data from LOOPyPMA-1_QEP046991__21__18-11-30-757.txt Node

Date: Sun May 11 18:11:30 CEST 2025
User: superuser
Spectrometer: QEP04699
Trigger mode: 4
Integration Time (sec): 1.000000E-1
Scans to average: 1
Electric dark correction enabled: true
Nonlinearity correction enabled: false
Boxcar width: 0
XAxis mode: Wavelengths
Number of Pixels in Spectrum: 1044
>>>>>Begin Spectral Data<<<<<
347.57	9.75
348.165	1.75
348.76	-4.25
349.355	-4.25
349.95	-3.25
350.545	-0.25
351.14	-2.25
351.735	-3.25
352.33	0.75
352.924	0.75
353.519	0.75
354.114	1.75
354.708	-5.25
355.303	3.75
355.897	-3.25
356.491	-0.25
357.086	-0.25
357.68	0.75
358.274	-2.25
358.868	3.75
359.462	-1.25
360.056	2.75
360.65	-2.25
361.244	1.75
361.838	2.75
362.431	-3.25
363.025	0.75
363.619	4.75
364.212	3.75
364.806	-1.25
365.399	-4.25
365.993	4.75
366.586	0.75
367.179	2.75
367.772	3.75
368.366	-1.25
368.959	-4.25
369.552	3.75
370.145	-1.25
370.738	1.75
371.331	3.75
371.923	2.75
372.516	3.75
373.109	-0.25
373.701	2.75
374.294	0.75
374.887	1.75
375.479	2.75
376.071	-1.25
376.664	1.75
377.256	-0.25
377.848	-4.25
378.44	0.75
379.033	-0.25
379.625	1.75
380.217	5.75
380.808	1.75
381.4	-1.25
381.992	0.75
382.584	-2.25
383.176	1.75
383.767	-0.25
384.359	0.75
384.95	-1.25
385.542	-2.25
386.133	3.75
386.725	3.75
387.316	3.75
387.907	1.75
388.498	0.75
389.089	1.75
389.68	1.75
390.271	1.75
390.862	3.75
391.453	-0.25
392.044	2.75
392.635	3.75
393.225	-2.25
393.816	-2.25
394.407	3.75
394.997	-0.25
395.588	2.75
396.178	1.75
396.768	0.75
397.359	1.75
397.949	1.75
398.539	2.75
399.129	1.75
399.719	3.75
400.309	1.75
400.899	2.75
401.489	0.75
402.079	2.75
402.668	6.75
403.258	5.75
403.848	0.75
404.437	3.75
405.027	3.75
405.616	6.75
406.206	3.75
406.795	3.75
407.384	5.75
407.973	3.75
408.563	3.75
409.152	3.75
409.741	4.75
410.33	-0.25
410.919	3.75
411.508	7.75
412.096	5.75
412.685	5.75
413.274	7.75
413.862	0.75
414.451	9.75
415.039	6.75
415.628	6.75
416.216	6.75
416.805	7.75
417.393	8.75
417.981	12.75
418.569	12.75
419.157	6.75
419.745	11.75
420.333	13.75
420.921	12.75
421.509	13.75
422.097	12.75
422.685	14.75
423.272	20.75
423.86	21.75
424.447	20.75
425.035	24.75
425.622	22.75
426.21	27.75
426.797	28.75
427.384	25.75
427.972	30.75
428.559	28.75
429.146	31.75
429.733	38.75
430.32	42.75
430.907	45.75
431.494	49.75
432.08	57.75
432.667	60.75
433.254	56.75
433.84	64.75
434.427	70.75
435.013	78.75
435.6	77.75
436.186	89.75
436.772	97.75
437.359	110.75
437.945	122.75
438.531	128.75
439.117	132.75
439.703	145.75
440.289	159.75
440.875	165.75
441.461	186.75
442.047	203.75
442.632	220.75
443.218	240.75
443.804	247.75
444.389	271.75
444.975	279.75
445.56	310.75
446.145	329.75
446.731	357.75
447.316	379.75
447.901	404.75
448.486	439.75
449.071	467.75
449.656	491.75
450.241	535.75
450.826	564.75
451.411	618.75
451.996	662.75
452.58	695.75
453.165	757.75
453.75	804.75
454.334	889.75
454.919	958.75
455.503	1028.75
456.087	1120.75
456.672	1175.75
457.256	1261.75
457.84	1353.75
458.424	1469.75
459.008	1577.75
459.592	1669.75
460.176	1747.75
460.76	1848.75
461.344	1931.75
461.927	2026.75
462.511	2110.75
463.095	2114.75
463.678	2205.75
464.262	2206.75
464.845	2234.75
465.429	2214.75
466.012	2208.75
466.595	2165.75
467.178	2121.75
467.762	2022.75
468.345	1954.75
468.928	1887.75
469.511	1796.75
470.094	1690.75
470.676	1609.75
471.259	1492.75
471.842	1383.75
472.425	1309.75
473.007	1196.75
473.59	1152.75
474.172	1052.75
474.755	986.75
475.337	927.75
475.919	865.75
476.502	832.75
477.084	757.75
477.666	734.75
478.248	702.75
478.83	667.75
479.412	615.75
479.994	597.75
480.576	562.75
481.157	547.75
481.739	518.75
482.321	491.75
482.902	457.75
483.484	438.75
484.065	401.75
484.647	383.75
485.228	367.75
485.809	342.75
486.391	314.75
486.972	307.75
487.553	279.75
488.134	261.75
488.715	225.75
489.296	231.75
489.877	212.75
490.458	195.75
491.038	196.75
491.619	180.75
492.2	168.75
492.78	161.75
493.361	150.75
493.941	154.75
494.522	136.75
495.102	130.75
495.682	119.75
496.262	127.75
496.843	115.75
497.423	118.75
498.003	109.75
498.583	105.75
499.163	103.75
499.742	106.75
500.322	100.75
500.902	109.75
501.482	94.75
502.061	87.75
502.641	99.75
503.22	91.75
503.8	93.75
504.379	87.75
504.958	79.75
505.538	84.75
506.117	84.75
506.696	80.75
507.275	82.75
507.854	79.75
508.433	79.75
509.012	73.75
509.591	82.75
510.169	83.75
510.748	84.75
511.327	80.75
511.905	93.75
512.484	87.75
513.062	93.75
513.641	92.75
514.219	103.75
514.797	106.75
515.375	116.75
515.954	116.75
516.532	121.75
517.11	139.75
517.688	140.75
518.266	150.75
518.843	164.75
519.421	155.75
519.999	181.75
520.577	184.75
521.154	204.75
521.732	214.75
522.309	219.75
522.887	224.75
523.464	248.75
524.041	243.75
524.619	257.75
525.196	249.75
525.773	263.75
526.35	282.75
526.927	283.75
527.504	291.75
528.081	301.75
528.658	288.75
529.235	297.75
529.811	297.75
530.388	303.75
530.964	307.75
531.541	318.75
532.117	308.75
532.694	327.75
533.27	314.75
533.846	311.75
534.423	316.75
534.999	307.75
535.575	304.75
536.151	306.75
536.727	303.75
537.303	311.75
537.879	300.75
538.455	302.75
539.03	301.75
539.606	305.75
540.182	295.75
540.757	291.75
541.333	298.75
541.908	292.75
542.483	300.75
543.059	279.75
543.634	281.75
544.209	279.75
544.784	279.75
545.359	282.75
545.934	276.75
546.509	280.75
547.084	263.75
547.659	273.75
548.234	270.75
548.808	265.75
549.383	272.75
549.958	245.75
550.532	259.75
551.107	254.75
551.681	253.75
552.255	253.75
552.83	250.75
553.404	244.75
553.978	259.75
554.552	248.75
555.126	259.75
555.7	242.75
556.274	238.75
556.848	255.75
557.422	254.75
557.995	258.75
558.569	252.75
559.143	259.75
559.716	261.75
560.29	268.75
560.863	260.75
561.437	276.75
562.01	267.75
562.583	273.75
563.156	272.75
563.729	282.75
564.302	278.75
564.875	291.75
565.448	294.75
566.021	291.75
566.594	294.75
567.167	306.75
567.74	304.75
568.312	299.75
568.885	318.75
569.457	319.75
570.03	316.75
570.602	318.75
571.174	329.75
571.747	330.75
572.319	310.75
572.891	312.75
573.463	322.75
574.035	319.75
574.607	316.75
575.179	329.75
575.751	316.75
576.323	321.75
576.894	316.75
577.466	299.75
578.038	319.75
578.609	327.75
579.181	313.75
579.752	313.75
580.323	313.75
580.895	320.75
581.466	330.75
582.037	321.75
582.608	324.75
583.179	328.75
583.75	316.75
584.321	331.75
584.892	326.75
585.463	344.75
586.033	317.75
586.604	329.75
587.175	334.75
587.745	341.75
588.316	343.75
588.886	322.75
589.457	334.75
590.027	334.75
590.597	331.75
591.167	327.75
591.737	337.75
592.308	330.75
592.878	332.75
593.447	327.75
594.017	335.75
594.587	328.75
595.157	307.75
595.727	318.75
596.296	316.75
596.866	312.75
597.435	318.75
598.005	317.75
598.574	315.75
599.143	305.75
599.713	306.75
600.282	300.75
600.851	302.75
601.42	303.75
601.989	297.75
602.558	304.75
603.127	300.75
603.696	301.75
604.265	288.75
604.833	291.75
605.402	295.75
605.971	293.75
606.539	291.75
607.108	294.75
607.676	295.75
608.244	284.75
608.813	276.75
609.381	291.75
609.949	284.75
610.517	303.75
611.085	291.75
611.653	295.75
612.221	303.75
612.789	292.75
613.357	281.75
613.924	284.75
614.492	288.75
615.06	294.75
615.627	277.75
616.195	281.75
616.762	282.75
617.329	282.75
617.897	282.75
618.464	274.75
619.031	282.75
619.598	272.75
620.165	273.75
620.732	270.75
621.299	268.75
621.866	266.75
622.433	276.75
623	270.75
623.566	268.75
624.133	255.75
624.7	264.75
625.266	261.75
625.832	262.75
626.399	258.75
626.965	279.75
627.531	262.75
628.098	261.75
628.664	264.75
629.23	256.75
629.796	263.75
630.362	255.75
630.928	256.75
631.493	245.75
632.059	261.75
632.625	252.75
633.19	252.75
633.756	240.75
634.322	254.75
634.887	241.75
635.452	247.75
636.018	244.75
636.583	240.75
637.148	242.75
637.713	230.75
638.278	235.75
638.843	236.75
639.408	234.75
639.973	237.75
640.538	221.75
641.103	236.75
641.667	216.75
642.232	218.75
642.797	226.75
643.361	220.75
643.926	223.75
644.49	213.75
645.054	216.75
645.619	214.75
646.183	218.75
646.747	211.75
647.311	206.75
647.875	211.75
648.439	209.75
649.003	192.75
649.567	199.75
650.131	202.75
650.694	188.75
651.258	199.75
651.822	196.75
652.385	195.75
652.949	188.75
653.512	188.75
654.075	185.75
654.639	191.75
655.202	183.75
655.765	180.75
656.328	180.75
656.891	175.75
657.454	173.75
658.017	184.75
658.58	169.75
659.143	171.75
659.705	163.75
660.268	163.75
660.83	158.75
661.393	164.75
661.955	165.75
662.518	168.75
663.08	159.75
663.643	151.75
664.205	162.75
664.767	161.75
665.329	159.75
665.891	156.75
666.453	153.75
667.015	159.75
667.577	152.75
668.139	148.75
668.7	142.75
669.262	140.75
669.824	134.75
670.385	147.75
670.947	135.75
671.508	138.75
672.069	142.75
672.631	138.75
673.192	137.75
673.753	138.75
674.314	133.75
674.875	142.75
675.436	131.75
675.997	130.75
676.558	136.75
677.119	128.75
677.679	123.75
678.24	127.75
678.801	130.75
679.361	119.75
679.922	126.75
680.482	126.75
681.042	122.75
681.603	132.75
682.163	139.75
682.723	126.75
683.283	124.75
683.843	119.75
684.403	118.75
684.963	124.75
685.523	115.75
686.083	109.75
686.642	125.75
687.202	118.75
687.762	109.75
688.321	106.75
688.881	104.75
689.44	100.75
690	108.75
690.559	102.75
691.118	99.75
691.677	97.75
692.236	103.75
692.795	94.75
693.354	97.75
693.913	97.75
694.472	86.75
695.031	90.75
695.59	89.75
696.148	91.75
696.707	89.75
697.265	88.75
697.824	87.75
698.382	88.75
698.941	88.75
699.499	86.75
700.057	83.75
700.615	73.75
701.173	82.75
701.731	78.75
702.289	74.75
702.847	72.75
703.405	76.75
703.963	73.75
704.521	78.75
705.078	81.75
705.636	78.75
706.194	78.75
706.751	73.75
707.308	73.75
707.866	67.75
708.423	61.75
708.98	67.75
709.537	71.75
710.095	61.75
710.652	60.75
711.209	60.75
711.765	67.75
712.322	67.75
712.879	65.75
713.436	65.75
713.992	56.75
714.549	58.75
715.106	56.75
715.662	63.75
716.218	61.75
716.775	51.75
717.331	53.75
717.887	55.75
718.443	56.75
719	53.75
719.556	48.75
720.112	45.75
720.667	48.75
721.223	47.75
721.779	43.75
722.335	52.75
722.89	54.75
723.446	50.75
724.002	45.75
724.557	46.75
725.112	51.75
725.668	39.75
726.223	48.75
726.778	41.75
727.333	42.75
727.888	44.75
728.443	51.75
728.998	37.75
729.553	47.75
730.108	38.75
730.663	46.75
731.218	41.75
731.772	38.75
732.327	38.75
732.881	45.75
733.436	41.75
733.99	44.75
734.545	43.75
735.099	35.75
735.653	41.75
736.207	37.75
736.761	31.75
737.315	29.75
737.869	34.75
738.423	35.75
738.977	30.75
739.531	39.75
740.084	41.75
740.638	26.75
741.192	33.75
741.745	33.75
742.299	31.75
742.852	33.75
743.405	28.75
743.959	22.75
744.512	30.75
745.065	32.75
745.618	27.75
746.171	27.75
746.724	26.75
747.277	30.75
747.83	30.75
748.382	23.75
748.935	26.75
749.488	24.75
750.04	26.75
750.593	23.75
751.145	28.75
751.698	27.75
752.25	26.75
752.802	25.75
753.354	24.75
753.906	23.75
754.458	19.75
755.01	23.75
755.562	22.75
756.114	21.75
756.666	20.75
757.218	28.75
757.769	23.75
758.321	26.75
758.873	22.75
759.424	21.75
759.975	20.75
760.527	17.75
761.078	18.75
761.629	19.75
762.181	14.75
762.732	21.75
763.283	17.75
763.834	24.75
764.385	18.75
764.935	17.75
765.486	17.75
766.037	13.75
766.588	19.75
767.138	15.75
767.689	14.75
768.239	18.75
768.79	20.75
769.34	12.75
769.89	19.75
770.44	14.75
770.991	17.75
771.541	19.75
772.091	18.75
772.641	11.75
773.191	12.75
773.74	21.75
774.29	13.75
774.84	18.75
775.39	16.75
775.939	16.75
776.489	15.75
777.038	15.75
777.588	16.75
778.137	13.75
778.686	14.75
779.235	13.75
779.784	13.75
780.334	18.75
780.883	16.75
781.431	13.75
781.98	17.75
782.529	15.75
783.078	15.75
783.627	11.75
784.175	13.75
784.724	11.75
785.272	10.75
785.821	15.75
786.369	14.75
786.917	12.75
787.466	13.75
788.014	9.75
788.562	12.75
789.11	10.75
789.658	10.75
790.206	13.75
790.754	9.75
791.302	13.75
791.849	11.75
792.397	13.75
792.945	10.75
793.492	12.75
794.04	10.75
794.587	7.75
795.134	10.75
795.682	9.75
796.229	8.75
796.776	8.75
797.323	7.75
797.87	8.75
798.417	9.75
798.964	8.75
799.511	6.75
800.058	6.75
800.604	11.75
801.151	5.75
801.698	5.75
802.244	6.75
802.791	8.75
803.337	7.75
803.883	5.75
804.43	6.75
804.976	5.75
805.522	3.75
806.068	8.75
806.614	4.75
807.16	8.75
807.706	7.75
808.252	5.75
808.797	5.75
809.343	9.75
809.889	3.75
810.434	7.75
810.98	5.75
811.525	4.75
812.071	6.75
812.616	3.75
813.161	5.75
813.706	4.75
814.252	3.75
814.797	5.75
815.342	7.75
815.886	6.75
816.431	8.75
816.976	6.75
817.521	1.75
818.066	5.75
818.61	4.75
819.155	4.75
819.699	9.75
820.244	5.75
820.788	6.75
821.332	8.75
821.876	1.75
822.421	9.75
822.965	2.75
823.509	7.75
824.053	6.75
824.597	-1.25
825.14	4.75
825.684	1.75
826.228	5.75
826.771	5.75
827.315	7.75
827.859	3.75
828.402	1.75
828.945	1.75
829.489	1.75
830.032	5.75
830.575	5.75
831.118	3.75
831.661	1.75
832.204	7.75
832.747	5.75
833.29	-0.25
833.833	5.75
834.376	5.75
834.918	1.75
835.461	7.75
836.004	6.75
836.546	0.75
837.088	0.75
837.631	3.75
838.173	2.75
838.715	4.75
839.257	4.75
839.8	1.75
840.342	3.75
840.884	2.75
841.425	1.75
841.967	6.75
842.509	3.75
843.051	1.75
843.592	2.75
844.134	3.75
844.676	1.75
845.217	-2.25
845.758	1.75
846.3	5.75
846.841	0.75
847.382	0.75
847.923	2.75
848.464	-2.25
849.005	2.75
849.546	-1.25
850.087	2.75
850.628	2.75
851.169	1.75
851.709	2.75
852.25	1.75
852.791	2.75
853.331	4.75
853.871	5.75
854.412	-1.25
854.952	1.75
855.492	0.75
856.033	3.75
856.573	0.75
857.113	1.75
857.653	2.75
858.193	0.75
858.732	-0.25
859.272	1.75
859.812	-0.25
860.352	1.75
860.891	-0.25
861.431	-0.25
861.97	0.75
862.509	3.75
863.049	2.75
863.588	2.75
864.127	-0.25
864.666	1.75
865.205	0.75
865.744	5.75
866.283	2.75
866.822	4.75
867.361	-1.25
867.9	2.75
868.438	0.75
868.977	-2.25
869.516	2.75
870.054	1.75
870.593	-1.25
871.131	-0.25
871.669	1.75
872.207	1.75
872.746	1.75
873.284	2.75
873.822	0.75
874.36	2.75
874.898	-1.25
875.435	4.75
875.973	2.75
876.511	-0.25
877.048	-0.25
877.586	2.75
878.124	-3.25
878.661	-1.25
879.198	1.75
879.736	-0.25
880.273	1.75
880.81	0.75
881.347	-0.25
881.884	-0.25
882.421	4.75
882.958	1.75
883.495	0.75
884.032	1.75
884.569	-1.25
885.105	-1.25
885.642	1.75
886.178	-4.25
886.715	-1.25
887.251	1.75
887.788	0.75
888.324	2.75
888.86	0.75
889.396	-0.25
889.932	-0.25
890.468	-0.25
891.004	1.75
891.54	0.75
892.076	-0.25
892.612	-0.25
893.147	-0.25
893.683	2.75
894.219	1.75
894.754	0.75
895.29	3.75
895.825	-1.25
896.36	1.75
896.896	1.75
897.431	1.75
897.966	2.75
898.501	0.75
899.036	-4.25
899.571	0.75
900.106	-1.25
900.64	0.75
901.175	0.75
901.71	0.75
902.244	1.75
902.779	1.75
903.313	-3.25
903.848	-2.25
904.382	0.75
904.916	-3.25
905.45	2.75
905.985	-0.25
906.519	-2.25
907.053	0.75
907.587	-1.25
908.12	1.75
908.654	6.75
909.188	-1.25
909.722	0.75
910.255	2.75
910.789	2.75
911.322	1.75
911.856	1.75
912.389	2.75
912.922	0.75
913.456	-0.25
913.989	3.75
914.522	-0.25
915.055	-0.25
915.588	0.75
916.121	-1.25
916.653	1.75
917.186	1.75
917.719	0.75
918.252	-0.25
918.784	1.75
919.317	-0.25
919.849	2.75
920.381	2.75
920.914	0.75
921.446	4.75
921.978	-2.25
922.51	2.75
923.042	0.75
923.574	3.75
924.106	0.75
924.638	0.75
925.17	-0.25
925.701	3.75
926.233	-0.25
926.765	0.75
927.296	-0.25
927.828	0.75
928.359	-1.25
928.89	-0.25
929.422	0.75
929.953	-1.25
930.484	1.75
931.015	0.75
931.546	1.75
932.077	4.75
932.608	-0.25
933.138	-2.25
933.669	0.75
934.2	0.75
934.73	-2.25
935.261	-2.25
