Data from LOOPyPMA-1_QEP046991__9__18-11-18-757.txt Node

Date: Sun May 11 18:11:18 CEST 2025
User: superuser
Spectrometer: QEP04699
Trigger mode: 4
Integration Time (sec): 1.000000E-1
Scans to average: 1
Electric dark correction enabled: true
Nonlinearity correction enabled: false
Boxcar width: 0
XAxis mode: Wavelengths
Number of Pixels in Spectrum: 1044
>>>>>Begin Spectral Data<<<<<
347.57	13.12
348.165	7.12
348.76	-3.88
349.355	-4.88
349.95	-2.88
350.545	0.12
351.14	-0.88
351.735	1.12
352.33	3.12
352.924	-3.88
353.519	5.12
354.114	2.12
354.708	-1.88
355.303	1.12
355.897	-1.88
356.491	4.12
357.086	3.12
357.68	1.12
358.274	2.12
358.868	-0.88
359.462	-0.88
360.056	1.12
360.65	1.12
361.244	0.12
361.838	-0.88
362.431	1.12
363.025	-3.88
363.619	4.12
364.212	-1.88
364.806	-0.88
365.399	1.12
365.993	1.12
366.586	1.12
367.179	2.12
367.772	1.12
368.366	4.12
368.959	2.12
369.552	4.12
370.145	-2.88
370.738	-0.88
371.331	1.12
371.923	0.12
372.516	1.12
373.109	1.12
373.701	4.12
374.294	-2.88
374.887	0.12
375.479	-0.88
376.071	3.12
376.664	1.12
377.256	1.12
377.848	-0.88
378.44	1.12
379.033	5.12
379.625	5.12
380.217	-0.88
380.808	1.12
381.4	0.12
381.992	3.12
382.584	1.12
383.176	1.12
383.767	2.12
384.359	0.12
384.95	2.12
385.542	1.12
386.133	2.12
386.725	4.12
387.316	2.12
387.907	0.12
388.498	3.12
389.089	2.12
389.68	1.12
390.271	1.12
390.862	4.12
391.453	3.12
392.044	3.12
392.635	0.12
393.225	3.12
393.816	-0.88
394.407	2.12
394.997	0.12
395.588	3.12
396.178	0.12
396.768	-0.88
397.359	3.12
397.949	3.12
398.539	3.12
399.129	2.12
399.719	4.12
400.309	1.12
400.899	2.12
401.489	0.12
402.079	5.12
402.668	1.12
403.258	3.12
403.848	5.12
404.437	0.12
405.027	7.12
405.616	2.12
406.206	2.12
406.795	4.12
407.384	4.12
407.973	5.12
408.563	4.12
409.152	4.12
409.741	5.12
410.33	4.12
410.919	5.12
411.508	10.12
412.096	2.12
412.685	6.12
413.274	7.12
413.862	2.12
414.451	5.12
415.039	7.12
415.628	6.12
416.216	6.12
416.805	9.12
417.393	11.12
417.981	9.12
418.569	13.12
419.157	16.12
419.745	12.12
420.333	13.12
420.921	16.12
421.509	12.12
422.097	18.12
422.685	14.12
423.272	21.12
423.86	19.12
424.447	23.12
425.035	25.12
425.622	24.12
426.21	27.12
426.797	31.12
427.384	33.12
427.972	34.12
428.559	31.12
429.146	34.12
429.733	32.12
430.32	43.12
430.907	50.12
431.494	47.12
432.08	57.12
432.667	57.12
433.254	60.12
433.84	62.12
434.427	76.12
435.013	78.12
435.6	81.12
436.186	89.12
436.772	104.12
437.359	107.12
437.945	119.12
438.531	128.12
439.117	140.12
439.703	152.12
440.289	154.12
440.875	178.12
441.461	192.12
442.047	200.12
442.632	213.12
443.218	240.12
443.804	246.12
444.389	258.12
444.975	280.12
445.56	301.12
446.145	320.12
446.731	347.12
447.316	397.12
447.901	403.12
448.486	441.12
449.071	448.12
449.656	505.12
450.241	534.12
450.826	570.12
451.411	614.12
451.996	666.12
452.58	686.12
453.165	778.12
453.75	800.12
454.334	881.12
454.919	944.12
455.503	1029.12
456.087	1105.12
456.672	1181.12
457.256	1263.12
457.84	1401.12
458.424	1457.12
459.008	1562.12
459.592	1649.12
460.176	1731.12
460.76	1832.12
461.344	1913.12
461.927	1993.12
462.511	2069.12
463.095	2134.12
463.678	2161.12
464.262	2231.12
464.845	2221.12
465.429	2233.12
466.012	2204.12
466.595	2170.12
467.178	2113.12
467.762	2049.12
468.345	1987.12
468.928	1878.12
469.511	1812.12
470.094	1694.12
470.676	1582.12
471.259	1493.12
471.842	1380.12
472.425	1307.12
473.007	1232.12
473.59	1125.12
474.172	1056.12
474.755	993.12
475.337	917.12
475.919	858.12
476.502	817.12
477.084	773.12
477.666	738.12
478.248	684.12
478.83	660.12
479.412	625.12
479.994	605.12
480.576	567.12
481.157	560.12
481.739	518.12
482.321	478.12
482.902	453.12
483.484	435.12
484.065	407.12
484.647	384.12
485.228	356.12
485.809	336.12
486.391	321.12
486.972	307.12
487.553	285.12
488.134	260.12
488.715	248.12
489.296	231.12
489.877	212.12
490.458	198.12
491.038	182.12
491.619	181.12
492.2	164.12
492.78	152.12
493.361	155.12
493.941	143.12
494.522	138.12
495.102	125.12
495.682	123.12
496.262	126.12
496.843	121.12
497.423	111.12
498.003	119.12
498.583	111.12
499.163	107.12
499.742	97.12
500.322	102.12
500.902	93.12
501.482	101.12
502.061	95.12
502.641	93.12
503.22	83.12
503.8	88.12
504.379	79.12
504.958	84.12
505.538	85.12
506.117	78.12
506.696	85.12
507.275	81.12
507.854	79.12
508.433	79.12
509.012	82.12
509.591	85.12
510.169	73.12
510.748	92.12
511.327	85.12
511.905	90.12
512.484	92.12
513.062	97.12
513.641	106.12
514.219	104.12
514.797	108.12
515.375	117.12
515.954	117.12
516.532	132.12
517.11	134.12
517.688	142.12
518.266	151.12
518.843	160.12
519.421	171.12
519.999	175.12
520.577	175.12
521.154	198.12
521.732	206.12
522.309	224.12
522.887	234.12
523.464	238.12
524.041	238.12
524.619	253.12
525.196	259.12
525.773	260.12
526.35	275.12
526.927	289.12
527.504	284.12
528.081	294.12
528.658	295.12
529.235	316.12
529.811	303.12
530.388	305.12
530.964	298.12
531.541	326.12
532.117	314.12
532.694	315.12
533.27	315.12
533.846	312.12
534.423	310.12
534.999	317.12
535.575	315.12
536.151	319.12
536.727	317.12
537.303	307.12
537.879	306.12
538.455	308.12
539.03	301.12
539.606	300.12
540.182	303.12
540.757	298.12
541.333	293.12
541.908	296.12
542.483	293.12
543.059	281.12
543.634	276.12
544.209	285.12
544.784	269.12
545.359	278.12
545.934	273.12
546.509	275.12
547.084	257.12
547.659	257.12
548.234	261.12
548.808	263.12
549.383	256.12
549.958	272.12
550.532	260.12
551.107	255.12
551.681	252.12
552.255	250.12
552.83	247.12
553.404	253.12
553.978	245.12
554.552	256.12
555.126	264.12
555.7	261.12
556.274	242.12
556.848	253.12
557.422	241.12
557.995	262.12
558.569	255.12
559.143	254.12
559.716	270.12
560.29	277.12
560.863	271.12
561.437	274.12
562.01	274.12
562.583	282.12
563.156	282.12
563.729	294.12
564.302	279.12
564.875	297.12
565.448	288.12
566.021	305.12
566.594	303.12
567.167	314.12
567.74	313.12
568.312	326.12
568.885	322.12
569.457	321.12
570.03	316.12
570.602	334.12
571.174	320.12
571.747	323.12
572.319	330.12
572.891	319.12
573.463	318.12
574.035	314.12
574.607	323.12
575.179	324.12
575.751	325.12
576.323	324.12
576.894	323.12
577.466	322.12
578.038	323.12
578.609	325.12
579.181	328.12
579.752	323.12
580.323	311.12
580.895	323.12
581.466	327.12
582.037	316.12
582.608	323.12
583.179	333.12
583.75	326.12
584.321	339.12
584.892	323.12
585.463	333.12
586.033	338.12
586.604	339.12
587.175	348.12
587.745	345.12
588.316	340.12
588.886	348.12
589.457	344.12
590.027	337.12
590.597	341.12
591.167	350.12
591.737	335.12
592.308	334.12
592.878	334.12
593.447	339.12
594.017	336.12
594.587	323.12
595.157	322.12
595.727	306.12
596.296	311.12
596.866	315.12
597.435	318.12
598.005	309.12
598.574	318.12
599.143	316.12
599.713	311.12
600.282	302.12
600.851	299.12
601.42	302.12
601.989	300.12
602.558	314.12
603.127	300.12
603.696	301.12
604.265	301.12
604.833	303.12
605.402	296.12
605.971	289.12
606.539	295.12
607.108	304.12
607.676	292.12
608.244	294.12
608.813	294.12
609.381	292.12
609.949	292.12
610.517	287.12
611.085	290.12
611.653	282.12
612.221	294.12
612.789	296.12
613.357	291.12
613.924	284.12
614.492	282.12
615.06	286.12
615.627	285.12
616.195	284.12
616.762	276.12
617.329	280.12
617.897	290.12
618.464	292.12
619.031	284.12
619.598	282.12
620.165	277.12
620.732	283.12
621.299	278.12
621.866	278.12
622.433	267.12
623	275.12
623.566	284.12
624.133	266.12
624.7	269.12
625.266	268.12
625.832	262.12
626.399	278.12
626.965	273.12
627.531	261.12
628.098	264.12
628.664	263.12
629.23	262.12
629.796	253.12
630.362	267.12
630.928	262.12
631.493	257.12
632.059	256.12
632.625	248.12
633.19	256.12
633.756	259.12
634.322	241.12
634.887	251.12
635.452	249.12
636.018	243.12
636.583	234.12
637.148	228.12
637.713	247.12
638.278	231.12
638.843	242.12
639.408	239.12
639.973	224.12
640.538	220.12
641.103	223.12
641.667	218.12
642.232	223.12
642.797	231.12
643.361	221.12
643.926	217.12
644.49	214.12
645.054	216.12
645.619	207.12
646.183	219.12
646.747	206.12
647.311	212.12
647.875	207.12
648.439	198.12
649.003	199.12
649.567	207.12
650.131	204.12
650.694	189.12
651.258	197.12
651.822	202.12
652.385	193.12
652.949	191.12
653.512	182.12
654.075	192.12
654.639	181.12
655.202	189.12
655.765	185.12
656.328	180.12
656.891	174.12
657.454	164.12
658.017	163.12
658.58	185.12
659.143	173.12
659.705	172.12
660.268	162.12
660.83	172.12
661.393	170.12
661.955	162.12
662.518	160.12
663.08	165.12
663.643	156.12
664.205	160.12
664.767	164.12
665.329	153.12
665.891	147.12
666.453	141.12
667.015	147.12
667.577	149.12
668.139	142.12
668.7	144.12
669.262	146.12
669.824	145.12
670.385	144.12
670.947	140.12
671.508	139.12
672.069	145.12
672.631	144.12
673.192	131.12
673.753	137.12
674.314	140.12
674.875	126.12
675.436	137.12
675.997	131.12
676.558	136.12
677.119	132.12
677.679	125.12
678.24	126.12
678.801	128.12
679.361	128.12
679.922	129.12
680.482	135.12
681.042	123.12
681.603	125.12
682.163	124.12
682.723	126.12
683.283	129.12
683.843	128.12
684.403	120.12
684.963	115.12
685.523	118.12
686.083	113.12
686.642	115.12
687.202	112.12
687.762	116.12
688.321	111.12
688.881	112.12
689.44	105.12
690	103.12
690.559	99.12
691.118	100.12
691.677	102.12
692.236	101.12
692.795	103.12
693.354	100.12
693.913	101.12
694.472	91.12
695.031	97.12
695.59	90.12
696.148	93.12
696.707	90.12
697.265	90.12
697.824	89.12
698.382	80.12
698.941	92.12
699.499	84.12
700.057	84.12
700.615	84.12
701.173	82.12
701.731	74.12
702.289	71.12
702.847	76.12
703.405	82.12
703.963	72.12
704.521	78.12
705.078	74.12
705.636	79.12
706.194	78.12
706.751	76.12
707.308	65.12
707.866	73.12
708.423	68.12
708.98	78.12
709.537	69.12
710.095	68.12
710.652	69.12
711.209	68.12
711.765	64.12
712.322	67.12
712.879	63.12
713.436	61.12
713.992	70.12
714.549	56.12
715.106	62.12
715.662	60.12
716.218	59.12
716.775	58.12
717.331	63.12
717.887	55.12
718.443	54.12
719	50.12
719.556	49.12
720.112	50.12
720.667	47.12
721.223	51.12
721.779	56.12
722.335	51.12
722.89	46.12
723.446	43.12
724.002	56.12
724.557	53.12
725.112	45.12
725.668	50.12
726.223	47.12
726.778	48.12
727.333	42.12
727.888	44.12
728.443	47.12
728.998	42.12
729.553	42.12
730.108	42.12
730.663	39.12
731.218	40.12
731.772	41.12
732.327	39.12
732.881	46.12
733.436	43.12
733.99	40.12
734.545	39.12
735.099	45.12
735.653	40.12
736.207	37.12
736.761	33.12
737.315	36.12
737.869	33.12
738.423	32.12
738.977	32.12
739.531	34.12
740.084	29.12
740.638	32.12
741.192	31.12
741.745	29.12
742.299	34.12
742.852	36.12
743.405	30.12
743.959	29.12
744.512	29.12
745.065	33.12
745.618	31.12
746.171	30.12
746.724	25.12
747.277	28.12
747.83	32.12
748.382	27.12
748.935	28.12
749.488	29.12
750.04	28.12
750.593	24.12
751.145	27.12
751.698	29.12
752.25	26.12
752.802	26.12
753.354	23.12
753.906	24.12
754.458	26.12
755.01	24.12
755.562	27.12
756.114	27.12
756.666	24.12
757.218	23.12
757.769	23.12
758.321	22.12
758.873	23.12
759.424	23.12
759.975	24.12
760.527	20.12
761.078	22.12
761.629	23.12
762.181	20.12
762.732	17.12
763.283	25.12
763.834	15.12
764.385	20.12
764.935	16.12
765.486	19.12
766.037	19.12
766.588	16.12
767.138	17.12
767.689	20.12
768.239	18.12
768.79	15.12
769.34	13.12
769.89	13.12
770.44	14.12
770.991	12.12
771.541	13.12
772.091	17.12
772.641	16.12
773.191	15.12
773.74	17.12
774.29	16.12
774.84	12.12
775.39	16.12
775.939	13.12
776.489	17.12
777.038	18.12
777.588	18.12
778.137	15.12
778.686	11.12
779.235	14.12
779.784	13.12
780.334	17.12
780.883	18.12
781.431	18.12
781.98	13.12
782.529	17.12
783.078	14.12
783.627	11.12
784.175	16.12
784.724	13.12
785.272	10.12
785.821	13.12
786.369	13.12
786.917	14.12
787.466	9.12
788.014	17.12
788.562	12.12
789.11	13.12
789.658	8.12
790.206	13.12
790.754	13.12
791.302	12.12
791.849	12.12
792.397	14.12
792.945	12.12
793.492	5.12
794.04	7.12
794.587	11.12
795.134	10.12
795.682	14.12
796.229	9.12
796.776	7.12
797.323	10.12
797.87	12.12
798.417	10.12
798.964	7.12
799.511	8.12
800.058	11.12
800.604	10.12
801.151	8.12
801.698	7.12
802.244	10.12
802.791	3.12
803.337	6.12
803.883	9.12
804.43	7.12
804.976	8.12
805.522	9.12
806.068	5.12
806.614	6.12
807.16	6.12
807.706	8.12
808.252	8.12
808.797	8.12
809.343	5.12
809.889	7.12
810.434	6.12
810.98	7.12
811.525	10.12
812.071	5.12
812.616	7.12
813.161	6.12
813.706	5.12
814.252	4.12
814.797	7.12
815.342	2.12
815.886	7.12
816.431	10.12
816.976	5.12
817.521	8.12
818.066	5.12
818.61	9.12
819.155	3.12
819.699	1.12
820.244	4.12
820.788	3.12
821.332	7.12
821.876	1.12
822.421	7.12
822.965	5.12
823.509	5.12
824.053	8.12
824.597	5.12
825.14	5.12
825.684	4.12
826.228	5.12
826.771	12.12
827.315	1.12
827.859	0.12
828.402	5.12
828.945	4.12
829.489	7.12
830.032	3.12
830.575	5.12
831.118	9.12
831.661	3.12
832.204	7.12
832.747	4.12
833.29	5.12
833.833	7.12
834.376	-0.88
834.918	5.12
835.461	4.12
836.004	4.12
836.546	5.12
837.088	5.12
837.631	1.12
838.173	1.12
838.715	3.12
839.257	3.12
839.8	2.12
840.342	4.12
840.884	2.12
841.425	2.12
841.967	1.12
842.509	2.12
843.051	3.12
843.592	3.12
844.134	6.12
844.676	1.12
845.217	1.12
845.758	4.12
846.3	4.12
846.841	4.12
847.382	4.12
847.923	5.12
848.464	2.12
849.005	4.12
849.546	0.12
850.087	7.12
850.628	0.12
851.169	0.12
851.709	1.12
852.25	5.12
852.791	0.12
853.331	3.12
853.871	4.12
854.412	3.12
854.952	4.12
855.492	5.12
856.033	3.12
856.573	2.12
857.113	3.12
857.653	5.12
858.193	0.12
858.732	3.12
859.272	2.12
859.812	-0.88
860.352	-1.88
860.891	1.12
861.431	1.12
861.97	1.12
862.509	1.12
863.049	-1.88
863.588	-0.88
864.127	2.12
864.666	2.12
865.205	4.12
865.744	2.12
866.283	2.12
866.822	4.12
867.361	5.12
867.9	0.12
868.438	5.12
868.977	2.12
869.516	1.12
870.054	2.12
870.593	1.12
871.131	1.12
871.669	4.12
872.207	4.12
872.746	0.12
873.284	3.12
873.822	1.12
874.36	1.12
874.898	5.12
875.435	-0.88
875.973	-0.88
876.511	3.12
877.048	1.12
877.586	1.12
878.124	5.12
878.661	-0.88
879.198	3.12
879.736	6.12
880.273	3.12
880.81	3.12
881.347	4.12
881.884	3.12
882.421	3.12
882.958	2.12
883.495	-2.88
884.032	3.12
884.569	2.12
885.105	1.12
885.642	3.12
886.178	2.12
886.715	2.12
887.251	0.12
887.788	3.12
888.324	2.12
888.86	6.12
889.396	3.12
889.932	5.12
890.468	1.12
891.004	3.12
891.54	2.12
892.076	0.12
892.612	-0.88
893.147	2.12
893.683	2.12
894.219	5.12
894.754	-1.88
895.29	-2.88
895.825	2.12
896.36	4.12
896.896	0.12
897.431	4.12
897.966	0.12
898.501	-2.88
899.036	0.12
899.571	0.12
900.106	3.12
900.64	5.12
901.175	0.12
901.71	0.12
902.244	1.12
902.779	-1.88
903.313	-1.88
903.848	0.12
904.382	1.12
904.916	-1.88
905.45	-1.88
905.985	3.12
906.519	4.12
907.053	0.12
907.587	2.12
908.12	4.12
908.654	2.12
909.188	1.12
909.722	3.12
910.255	2.12
910.789	1.12
911.322	5.12
911.856	0.12
912.389	-3.88
912.922	5.12
913.456	0.12
913.989	1.12
914.522	3.12
915.055	1.12
915.588	1.12
916.121	0.12
916.653	1.12
917.186	2.12
917.719	3.12
918.252	5.12
918.784	2.12
919.317	1.12
919.849	-3.88
920.381	3.12
920.914	-4.88
921.446	0.12
921.978	-1.88
922.51	2.12
923.042	1.12
923.574	0.12
924.106	4.12
924.638	1.12
925.17	3.12
925.701	-0.88
926.233	0.12
926.765	1.12
927.296	2.12
927.828	-2.88
928.359	2.12
928.89	1.12
929.422	-0.88
929.953	1.12
930.484	3.12
931.015	4.12
931.546	-0.88
932.077	1.12
932.608	0.12
933.138	-4.88
933.669	-2.88
934.2	-2.88
934.73	-3.88
935.261	-1.88
