Data from LOOPyPMA-1_QEP046991__28__18-11-37-758.txt Node

Date: Sun May 11 18:11:37 CEST 2025
User: superuser
Spectrometer: QEP04699
Trigger mode: 4
Integration Time (sec): 1.000000E-1
Scans to average: 1
Electric dark correction enabled: true
Nonlinearity correction enabled: false
Boxcar width: 0
XAxis mode: Wavelengths
Number of Pixels in Spectrum: 1044
>>>>>Begin Spectral Data<<<<<
347.57	11
348.165	-3
348.76	0
349.355	2
349.95	-1
350.545	-1
351.14	0
351.735	-2
352.33	-2
352.924	0
353.519	4
354.114	2
354.708	-3
355.303	0
355.897	-5
356.491	-2
357.086	0
357.68	-2
358.274	2
358.868	3
359.462	1
360.056	4
360.65	-2
361.244	-1
361.838	1
362.431	2
363.025	1
363.619	1
364.212	4
364.806	1
365.399	4
365.993	4
366.586	1
367.179	0
367.772	2
368.366	-2
368.959	0
369.552	0
370.145	0
370.738	2
371.331	4
371.923	0
372.516	4
373.109	2
373.701	2
374.294	0
374.887	-1
375.479	-3
376.071	1
376.664	5
377.256	-4
377.848	0
378.44	-2
379.033	-2
379.625	-1
380.217	2
380.808	3
381.4	-1
381.992	4
382.584	1
383.176	3
383.767	3
384.359	3
384.95	4
385.542	-1
386.133	2
386.725	-2
387.316	2
387.907	1
388.498	5
389.089	-1
389.68	-2
390.271	4
390.862	2
391.453	1
392.044	-2
392.635	-1
393.225	1
393.816	3
394.407	-3
394.997	5
395.588	5
396.178	2
396.768	4
397.359	0
397.949	2
398.539	4
399.129	3
399.719	1
400.309	4
400.899	3
401.489	3
402.079	3
402.668	8
403.258	5
403.848	5
404.437	1
405.027	2
405.616	2
406.206	4
406.795	10
407.384	1
407.973	3
408.563	6
409.152	2
409.741	5
410.33	7
410.919	7
411.508	6
412.096	7
412.685	7
413.274	6
413.862	5
414.451	10
415.039	9
415.628	8
416.216	7
416.805	10
417.393	12
417.981	11
418.569	8
419.157	16
419.745	8
420.333	11
420.921	14
421.509	15
422.097	15
422.685	19
423.272	20
423.86	22
424.447	19
425.035	26
425.622	21
426.21	29
426.797	27
427.384	25
427.972	36
428.559	35
429.146	40
429.733	40
430.32	43
430.907	51
431.494	50
432.08	59
432.667	56
433.254	63
433.84	62
434.427	76
435.013	84
435.6	82
436.186	88
436.772	99
437.359	102
437.945	116
438.531	129
439.117	132
439.703	156
440.289	166
440.875	168
441.461	185
442.047	210
442.632	211
443.218	232
443.804	249
444.389	269
444.975	293
445.56	298
446.145	345
446.731	356
447.316	372
447.901	422
448.486	442
449.071	463
449.656	496
450.241	553
450.826	573
451.411	602
451.996	674
452.58	704
453.165	725
453.75	826
454.334	879
454.919	964
455.503	1010
456.087	1105
456.672	1194
457.256	1255
457.84	1369
458.424	1466
459.008	1542
459.592	1661
460.176	1770
460.76	1820
461.344	1925
461.927	2020
462.511	2081
463.095	2141
463.678	2184
464.262	2199
464.845	2213
465.429	2218
466.012	2205
466.595	2189
467.178	2117
467.762	2052
468.345	1966
468.928	1885
469.511	1781
470.094	1714
470.676	1622
471.259	1489
471.842	1408
472.425	1340
473.007	1229
473.59	1160
474.172	1070
474.755	985
475.337	934
475.919	874
476.502	824
477.084	786
477.666	746
478.248	700
478.83	670
479.412	626
479.994	591
480.576	569
481.157	546
481.739	522
482.321	491
482.902	478
483.484	445
484.065	404
484.647	400
485.228	369
485.809	354
486.391	310
486.972	315
487.553	286
488.134	274
488.715	253
489.296	230
489.877	217
490.458	211
491.038	188
491.619	177
492.2	161
492.78	165
493.361	155
493.941	142
494.522	145
495.102	134
495.682	131
496.262	129
496.843	129
497.423	114
498.003	118
498.583	112
499.163	104
499.742	99
500.322	105
500.902	99
501.482	99
502.061	92
502.641	99
503.22	83
503.8	91
504.379	91
504.958	75
505.538	80
506.117	82
506.696	81
507.275	73
507.854	80
508.433	72
509.012	77
509.591	82
510.169	82
510.748	80
511.327	86
511.905	93
512.484	92
513.062	95
513.641	96
514.219	108
514.797	112
515.375	111
515.954	120
516.532	134
517.11	137
517.688	150
518.266	153
518.843	155
519.421	164
519.999	181
520.577	188
521.154	193
521.732	205
522.309	216
522.887	218
523.464	229
524.041	229
524.619	251
525.196	259
525.773	256
526.35	264
526.927	278
527.504	276
528.081	298
528.658	284
529.235	278
529.811	283
530.388	301
530.964	307
531.541	301
532.117	298
532.694	305
533.27	297
533.846	311
534.423	317
534.999	298
535.575	301
536.151	301
536.727	305
537.303	296
537.879	288
538.455	289
539.03	293
539.606	293
540.182	300
540.757	293
541.333	274
541.908	278
542.483	269
543.059	280
543.634	279
544.209	277
544.784	283
545.359	276
545.934	273
546.509	261
547.084	249
547.659	259
548.234	268
548.808	258
549.383	260
549.958	244
550.532	249
551.107	252
551.681	251
552.255	240
552.83	246
553.404	253
553.978	238
554.552	239
555.126	234
555.7	242
556.274	246
556.848	245
557.422	244
557.995	249
558.569	250
559.143	253
559.716	258
560.29	258
560.863	260
561.437	258
562.01	268
562.583	280
563.156	277
563.729	272
564.302	275
564.875	289
565.448	278
566.021	289
566.594	298
567.167	291
567.74	293
568.312	293
568.885	307
569.457	307
570.03	313
570.602	303
571.174	314
571.747	309
572.319	311
572.891	310
573.463	315
574.035	302
574.607	317
575.179	326
575.751	306
576.323	305
576.894	314
577.466	318
578.038	304
578.609	308
579.181	307
579.752	305
580.323	306
580.895	310
581.466	317
582.037	306
582.608	321
583.179	308
583.75	316
584.321	323
584.892	315
585.463	320
586.033	322
586.604	333
587.175	332
587.745	336
588.316	317
588.886	328
589.457	332
590.027	310
590.597	327
591.167	342
591.737	313
592.308	321
592.878	325
593.447	302
594.017	321
594.587	295
595.157	307
595.727	305
596.296	322
596.866	305
597.435	314
598.005	304
598.574	304
599.143	302
599.713	303
600.282	295
600.851	287
601.42	297
601.989	296
602.558	289
603.127	271
603.696	277
604.265	277
604.833	289
605.402	285
605.971	281
606.539	288
607.108	277
607.676	281
608.244	279
608.813	279
609.381	275
609.949	286
610.517	286
611.085	283
611.653	270
612.221	265
612.789	276
613.357	283
613.924	262
614.492	285
615.06	272
615.627	281
616.195	266
616.762	280
617.329	269
617.897	275
618.464	262
619.031	271
619.598	264
620.165	267
620.732	266
621.299	264
621.866	264
622.433	265
623	262
623.566	270
624.133	258
624.7	253
625.266	260
625.832	262
626.399	250
626.965	266
627.531	248
628.098	263
628.664	238
629.23	250
629.796	259
630.362	259
630.928	241
631.493	250
632.059	242
632.625	245
633.19	234
633.756	245
634.322	241
634.887	239
635.452	239
636.018	241
636.583	233
637.148	226
637.713	230
638.278	223
638.843	230
639.408	228
639.973	232
640.538	231
641.103	212
641.667	215
642.232	202
642.797	212
643.361	207
643.926	210
644.49	214
645.054	214
645.619	215
646.183	197
646.747	193
647.311	209
647.875	203
648.439	194
649.003	202
649.567	190
650.131	194
650.694	193
651.258	186
651.822	191
652.385	190
652.949	177
653.512	177
654.075	176
654.639	169
655.202	173
655.765	176
656.328	172
656.891	169
657.454	178
658.017	178
658.58	169
659.143	167
659.705	160
660.268	167
660.83	157
661.393	161
661.955	161
662.518	155
663.08	161
663.643	152
664.205	150
664.767	144
665.329	149
665.891	151
666.453	150
667.015	146
667.577	148
668.139	150
668.7	140
669.262	143
669.824	147
670.385	133
670.947	141
671.508	137
672.069	140
672.631	129
673.192	140
673.753	124
674.314	129
674.875	136
675.436	123
675.997	124
676.558	131
677.119	122
677.679	123
678.24	125
678.801	136
679.361	122
679.922	137
680.482	117
681.042	124
681.603	119
682.163	120
682.723	110
683.283	116
683.843	118
684.403	116
684.963	113
685.523	108
686.083	111
686.642	110
687.202	107
687.762	103
688.321	102
688.881	104
689.44	105
690	102
690.559	95
691.118	100
691.677	92
692.236	93
692.795	88
693.354	95
693.913	90
694.472	85
695.031	87
695.59	88
696.148	88
696.707	84
697.265	89
697.824	86
698.382	81
698.941	85
699.499	85
700.057	85
700.615	76
701.173	80
701.731	81
702.289	72
702.847	78
703.405	77
703.963	72
704.521	74
705.078	78
705.636	74
706.194	71
706.751	72
707.308	73
707.866	64
708.423	70
708.98	68
709.537	70
710.095	64
710.652	65
711.209	67
711.765	58
712.322	64
712.879	64
713.436	59
713.992	59
714.549	55
715.106	55
715.662	56
716.218	62
716.775	54
717.331	59
717.887	52
718.443	57
719	53
719.556	50
720.112	49
720.667	46
721.223	45
721.779	57
722.335	44
722.89	44
723.446	43
724.002	42
724.557	45
725.112	43
725.668	44
726.223	42
726.778	42
727.333	43
727.888	42
728.443	38
728.998	36
729.553	39
730.108	41
730.663	36
731.218	38
731.772	40
732.327	39
732.881	36
733.436	35
733.99	35
734.545	37
735.099	35
735.653	40
736.207	36
736.761	36
737.315	37
737.869	36
738.423	36
738.977	33
739.531	29
740.084	31
740.638	27
741.192	33
741.745	30
742.299	26
742.852	33
743.405	28
743.959	33
744.512	30
745.065	29
745.618	26
746.171	30
746.724	28
747.277	24
747.83	25
748.382	29
748.935	29
749.488	23
750.04	23
750.593	24
751.145	23
751.698	24
752.25	25
752.802	27
753.354	25
753.906	20
754.458	24
755.01	26
755.562	21
756.114	22
756.666	24
757.218	24
757.769	21
758.321	25
758.873	19
759.424	20
759.975	22
760.527	21
761.078	18
761.629	20
762.181	18
762.732	22
763.283	19
763.834	21
764.385	20
764.935	21
765.486	18
766.037	14
766.588	17
767.138	17
767.689	17
768.239	14
768.79	15
769.34	17
769.89	14
770.44	17
770.991	15
771.541	12
772.091	21
772.641	16
773.191	16
773.74	19
774.29	15
774.84	16
775.39	14
775.939	18
776.489	16
777.038	18
777.588	14
778.137	15
778.686	19
779.235	18
779.784	16
780.334	10
780.883	9
781.431	15
781.98	12
782.529	13
783.078	15
783.627	11
784.175	13
784.724	14
785.272	13
785.821	14
786.369	12
786.917	10
787.466	16
788.014	10
788.562	8
789.11	12
789.658	7
790.206	15
790.754	10
791.302	11
791.849	11
792.397	13
792.945	12
793.492	13
794.04	11
794.587	11
795.134	9
795.682	9
796.229	7
796.776	11
797.323	9
797.87	9
798.417	7
798.964	14
799.511	12
800.058	8
800.604	7
801.151	10
801.698	9
802.244	11
802.791	4
803.337	10
803.883	8
804.43	8
804.976	8
805.522	9
806.068	5
806.614	5
807.16	4
807.706	8
808.252	10
808.797	6
809.343	2
809.889	4
810.434	7
810.98	8
811.525	12
812.071	9
812.616	6
813.161	6
813.706	4
814.252	5
814.797	3
815.342	4
815.886	6
816.431	5
816.976	9
817.521	4
818.066	7
818.61	7
819.155	5
819.699	7
820.244	11
820.788	3
821.332	6
821.876	7
822.421	2
822.965	5
823.509	3
824.053	3
824.597	6
825.14	3
825.684	7
826.228	8
826.771	6
827.315	5
827.859	4
828.402	5
828.945	3
829.489	6
830.032	6
830.575	4
831.118	5
831.661	4
832.204	8
832.747	4
833.29	7
833.833	2
834.376	1
834.918	5
835.461	8
836.004	5
836.546	5
837.088	6
837.631	-1
838.173	5
838.715	3
839.257	4
839.8	6
840.342	5
840.884	4
841.425	6
841.967	0
842.509	4
843.051	10
843.592	5
844.134	5
844.676	0
845.217	1
845.758	3
846.3	4
846.841	2
847.382	3
847.923	1
848.464	0
849.005	1
849.546	2
850.087	1
850.628	3
851.169	0
851.709	3
852.25	2
852.791	5
853.331	4
853.871	2
854.412	1
854.952	0
855.492	0
856.033	-1
856.573	5
857.113	4
857.653	5
858.193	-2
858.732	-1
859.272	2
859.812	6
860.352	1
860.891	6
861.431	0
861.97	4
862.509	1
863.049	2
863.588	0
864.127	3
864.666	3
865.205	3
865.744	1
866.283	9
866.822	1
867.361	1
867.9	2
868.438	5
868.977	-1
869.516	-3
870.054	5
870.593	0
871.131	-1
871.669	0
872.207	4
872.746	3
873.284	2
873.822	6
874.36	1
874.898	2
875.435	2
875.973	2
876.511	3
877.048	1
877.586	2
878.124	0
878.661	-1
879.198	-2
879.736	0
880.273	2
880.81	3
881.347	0
881.884	2
882.421	4
882.958	3
883.495	0
884.032	2
884.569	2
885.105	2
885.642	7
886.178	5
886.715	2
887.251	3
887.788	-1
888.324	5
888.86	-1
889.396	3
889.932	-2
890.468	1
891.004	0
891.54	1
892.076	1
892.612	0
893.147	1
893.683	2
894.219	0
894.754	-1
895.29	0
895.825	-4
896.36	0
896.896	3
897.431	2
897.966	-1
898.501	2
899.036	1
899.571	-1
900.106	-3
900.64	1
901.175	2
901.71	1
902.244	0
902.779	0
903.313	0
903.848	0
904.382	-1
904.916	0
905.45	0
905.985	0
906.519	2
907.053	-2
907.587	0
908.12	2
908.654	-1
909.188	-2
909.722	1
910.255	-1
910.789	3
911.322	-1
911.856	3
912.389	-1
912.922	0
913.456	2
913.989	2
914.522	1
915.055	3
915.588	0
916.121	-2
916.653	0
917.186	0
917.719	0
918.252	2
918.784	2
919.317	1
919.849	3
920.381	3
920.914	1
921.446	3
921.978	2
922.51	-1
923.042	1
923.574	2
924.106	0
924.638	-5
925.17	-2
925.701	3
926.233	2
926.765	1
927.296	0
927.828	0
928.359	1
928.89	0
929.422	3
929.953	3
930.484	1
931.015	2
931.546	2
932.077	2
932.608	-1
933.138	-1
933.669	-5
934.2	-1
934.73	-1
935.261	-3
