Data from LOOPyPMA-1_QEP046991__46__18-11-55-758.txt Node

Date: Sun May 11 18:11:55 CEST 2025
User: superuser
Spectrometer: QEP04699
Trigger mode: 4
Integration Time (sec): 1.000000E-1
Scans to average: 1
Electric dark correction enabled: true
Nonlinearity correction enabled: false
Boxcar width: 0
XAxis mode: Wavelengths
Number of Pixels in Spectrum: 1044
>>>>>Begin Spectral Data<<<<<
347.57	14.5
348.165	4.5
348.76	-2.5
349.355	-3.5
349.95	-4.5
350.545	-2.5
351.14	-3.5
351.735	-2.5
352.33	2.5
352.924	1.5
353.519	4.5
354.114	-1.5
354.708	-1.5
355.303	-0.5
355.897	-3.5
356.491	-0.5
357.086	-3.5
357.68	-1.5
358.274	2.5
358.868	-0.5
359.462	3.5
360.056	1.5
360.65	-2.5
361.244	2.5
361.838	1.5
362.431	2.5
363.025	2.5
363.619	0.5
364.212	-0.5
364.806	0.5
365.399	-0.5
365.993	1.5
366.586	1.5
367.179	-1.5
367.772	-0.5
368.366	2.5
368.959	-1.5
369.552	0.5
370.145	-0.5
370.738	-0.5
371.331	2.5
371.923	-1.5
372.516	-0.5
373.109	-2.5
373.701	6.5
374.294	-0.5
374.887	1.5
375.479	3.5
376.071	0.5
376.664	0.5
377.256	4.5
377.848	1.5
378.44	1.5
379.033	2.5
379.625	-2.5
380.217	0.5
380.808	0.5
381.4	2.5
381.992	4.5
382.584	2.5
383.176	1.5
383.767	0.5
384.359	-4.5
384.95	0.5
385.542	2.5
386.133	4.5
386.725	1.5
387.316	3.5
387.907	-0.5
388.498	2.5
389.089	-0.5
389.68	0.5
390.271	-0.5
390.862	2.5
391.453	1.5
392.044	1.5
392.635	1.5
393.225	2.5
393.816	2.5
394.407	4.5
394.997	0.5
395.588	0.5
396.178	0.5
396.768	2.5
397.359	2.5
397.949	3.5
398.539	0.5
399.129	-0.5
399.719	4.5
400.309	1.5
400.899	2.5
401.489	8.5
402.079	4.5
402.668	2.5
403.258	2.5
403.848	3.5
404.437	1.5
405.027	1.5
405.616	4.5
406.206	3.5
406.795	5.5
407.384	3.5
407.973	3.5
408.563	1.5
409.152	4.5
409.741	3.5
410.33	5.5
410.919	2.5
411.508	6.5
412.096	6.5
412.685	4.5
413.274	6.5
413.862	4.5
414.451	5.5
415.039	8.5
415.628	6.5
416.216	9.5
416.805	9.5
417.393	7.5
417.981	9.5
418.569	7.5
419.157	9.5
419.745	17.5
420.333	12.5
420.921	10.5
421.509	13.5
422.097	13.5
422.685	17.5
423.272	16.5
423.86	19.5
424.447	21.5
425.035	22.5
425.622	25.5
426.21	26.5
426.797	28.5
427.384	31.5
427.972	32.5
428.559	29.5
429.146	43.5
429.733	39.5
430.32	50.5
430.907	46.5
431.494	52.5
432.08	57.5
432.667	56.5
433.254	62.5
433.84	68.5
434.427	77.5
435.013	84.5
435.6	83.5
436.186	92.5
436.772	98.5
437.359	103.5
437.945	117.5
438.531	127.5
439.117	137.5
439.703	150.5
440.289	159.5
440.875	178.5
441.461	179.5
442.047	201.5
442.632	217.5
443.218	232.5
443.804	242.5
444.389	273.5
444.975	288.5
445.56	303.5
446.145	329.5
446.731	360.5
447.316	377.5
447.901	408.5
448.486	434.5
449.071	456.5
449.656	521.5
450.241	554.5
450.826	589.5
451.411	633.5
451.996	665.5
452.58	732.5
453.165	778.5
453.75	839.5
454.334	909.5
454.919	985.5
455.503	1050.5
456.087	1127.5
456.672	1220.5
457.256	1307.5
457.84	1386.5
458.424	1493.5
459.008	1617.5
459.592	1681.5
460.176	1823.5
460.76	1912.5
461.344	2001.5
461.927	2083.5
462.511	2150.5
463.095	2206.5
463.678	2229.5
464.262	2288.5
464.845	2308.5
465.429	2280.5
466.012	2294.5
466.595	2255.5
467.178	2191.5
467.762	2127.5
468.345	2033.5
468.928	1961.5
469.511	1883.5
470.094	1768.5
470.676	1657.5
471.259	1574.5
471.842	1495.5
472.425	1376.5
473.007	1267.5
473.59	1196.5
474.172	1127.5
474.755	1043.5
475.337	977.5
475.919	935.5
476.502	873.5
477.084	823.5
477.666	771.5
478.248	745.5
478.83	698.5
479.412	667.5
479.994	620.5
480.576	600.5
481.157	556.5
481.739	544.5
482.321	521.5
482.902	488.5
483.484	455.5
484.065	438.5
484.647	415.5
485.228	384.5
485.809	364.5
486.391	352.5
486.972	315.5
487.553	301.5
488.134	289.5
488.715	252.5
489.296	231.5
489.877	233.5
490.458	212.5
491.038	195.5
491.619	192.5
492.2	178.5
492.78	183.5
493.361	158.5
493.941	141.5
494.522	149.5
495.102	144.5
495.682	142.5
496.262	127.5
496.843	131.5
497.423	126.5
498.003	117.5
498.583	107.5
499.163	110.5
499.742	106.5
500.322	108.5
500.902	101.5
501.482	92.5
502.061	87.5
502.641	92.5
503.22	88.5
503.8	93.5
504.379	78.5
504.958	75.5
505.538	86.5
506.117	76.5
506.696	75.5
507.275	79.5
507.854	80.5
508.433	81.5
509.012	84.5
509.591	79.5
510.169	84.5
510.748	76.5
511.327	80.5
511.905	83.5
512.484	88.5
513.062	92.5
513.641	93.5
514.219	102.5
514.797	100.5
515.375	107.5
515.954	105.5
516.532	131.5
517.11	127.5
517.688	131.5
518.266	133.5
518.843	142.5
519.421	152.5
519.999	165.5
520.577	173.5
521.154	175.5
521.732	193.5
522.309	198.5
522.887	208.5
523.464	223.5
524.041	220.5
524.619	227.5
525.196	233.5
525.773	249.5
526.35	240.5
526.927	248.5
527.504	260.5
528.081	270.5
528.658	272.5
529.235	286.5
529.811	284.5
530.388	280.5
530.964	276.5
531.541	293.5
532.117	274.5
532.694	297.5
533.27	287.5
533.846	284.5
534.423	281.5
534.999	294.5
535.575	293.5
536.151	271.5
536.727	275.5
537.303	291.5
537.879	279.5
538.455	272.5
539.03	292.5
539.606	269.5
540.182	282.5
540.757	271.5
541.333	262.5
541.908	264.5
542.483	261.5
543.059	250.5
543.634	252.5
544.209	256.5
544.784	259.5
545.359	255.5
545.934	253.5
546.509	247.5
547.084	246.5
547.659	243.5
548.234	244.5
548.808	240.5
549.383	228.5
549.958	237.5
550.532	228.5
551.107	232.5
551.681	235.5
552.255	228.5
552.83	226.5
553.404	223.5
553.978	223.5
554.552	223.5
555.126	233.5
555.7	226.5
556.274	228.5
556.848	226.5
557.422	228.5
557.995	221.5
558.569	226.5
559.143	230.5
559.716	236.5
560.29	237.5
560.863	234.5
561.437	242.5
562.01	248.5
562.583	248.5
563.156	253.5
563.729	251.5
564.302	258.5
564.875	260.5
565.448	263.5
566.021	268.5
566.594	278.5
567.167	286.5
567.74	289.5
568.312	269.5
568.885	285.5
569.457	286.5
570.03	279.5
570.602	288.5
571.174	290.5
571.747	297.5
572.319	281.5
572.891	297.5
573.463	288.5
574.035	303.5
574.607	277.5
575.179	283.5
575.751	301.5
576.323	290.5
576.894	287.5
577.466	300.5
578.038	292.5
578.609	292.5
579.181	281.5
579.752	279.5
580.323	296.5
580.895	283.5
581.466	293.5
582.037	286.5
582.608	291.5
583.179	301.5
583.75	295.5
584.321	286.5
584.892	284.5
585.463	296.5
586.033	286.5
586.604	300.5
587.175	293.5
587.745	305.5
588.316	303.5
588.886	301.5
589.457	303.5
590.027	301.5
590.597	303.5
591.167	302.5
591.737	308.5
592.308	288.5
592.878	299.5
593.447	294.5
594.017	296.5
594.587	288.5
595.157	290.5
595.727	283.5
596.296	278.5
596.866	280.5
597.435	268.5
598.005	280.5
598.574	268.5
599.143	271.5
599.713	272.5
600.282	272.5
600.851	277.5
601.42	272.5
601.989	275.5
602.558	269.5
603.127	265.5
603.696	263.5
604.265	272.5
604.833	267.5
605.402	254.5
605.971	258.5
606.539	254.5
607.108	266.5
607.676	271.5
608.244	261.5
608.813	249.5
609.381	256.5
609.949	267.5
610.517	249.5
611.085	257.5
611.653	257.5
612.221	258.5
612.789	255.5
613.357	258.5
613.924	260.5
614.492	253.5
615.06	264.5
615.627	249.5
616.195	253.5
616.762	248.5
617.329	250.5
617.897	251.5
618.464	243.5
619.031	241.5
619.598	255.5
620.165	249.5
620.732	235.5
621.299	246.5
621.866	238.5
622.433	236.5
623	245.5
623.566	235.5
624.133	227.5
624.7	239.5
625.266	242.5
625.832	239.5
626.399	226.5
626.965	235.5
627.531	238.5
628.098	229.5
628.664	229.5
629.23	232.5
629.796	219.5
630.362	225.5
630.928	227.5
631.493	225.5
632.059	220.5
632.625	213.5
633.19	220.5
633.756	206.5
634.322	227.5
634.887	215.5
635.452	230.5
636.018	208.5
636.583	204.5
637.148	206.5
637.713	212.5
638.278	209.5
638.843	205.5
639.408	211.5
639.973	206.5
640.538	208.5
641.103	192.5
641.667	203.5
642.232	201.5
642.797	194.5
643.361	188.5
643.926	192.5
644.49	198.5
645.054	189.5
645.619	191.5
646.183	196.5
646.747	189.5
647.311	190.5
647.875	175.5
648.439	172.5
649.003	184.5
649.567	182.5
650.131	184.5
650.694	176.5
651.258	166.5
651.822	163.5
652.385	162.5
652.949	167.5
653.512	171.5
654.075	168.5
654.639	165.5
655.202	164.5
655.765	165.5
656.328	157.5
656.891	152.5
657.454	159.5
658.017	155.5
658.58	151.5
659.143	151.5
659.705	152.5
660.268	149.5
660.83	154.5
661.393	153.5
661.955	138.5
662.518	143.5
663.08	142.5
663.643	142.5
664.205	148.5
664.767	143.5
665.329	136.5
665.891	135.5
666.453	136.5
667.015	128.5
667.577	134.5
668.139	136.5
668.7	130.5
669.262	135.5
669.824	129.5
670.385	123.5
670.947	129.5
671.508	124.5
672.069	118.5
672.631	116.5
673.192	124.5
673.753	113.5
674.314	121.5
674.875	116.5
675.436	118.5
675.997	111.5
676.558	112.5
677.119	113.5
677.679	120.5
678.24	119.5
678.801	113.5
679.361	112.5
679.922	108.5
680.482	115.5
681.042	109.5
681.603	103.5
682.163	108.5
682.723	110.5
683.283	104.5
683.843	112.5
684.403	104.5
684.963	101.5
685.523	96.5
686.083	99.5
686.642	97.5
687.202	101.5
687.762	104.5
688.321	101.5
688.881	93.5
689.44	90.5
690	89.5
690.559	96.5
691.118	89.5
691.677	89.5
692.236	81.5
692.795	88.5
693.354	86.5
693.913	81.5
694.472	84.5
695.031	84.5
695.59	85.5
696.148	82.5
696.707	81.5
697.265	78.5
697.824	80.5
698.382	76.5
698.941	77.5
699.499	73.5
700.057	71.5
700.615	71.5
701.173	64.5
701.731	77.5
702.289	68.5
702.847	73.5
703.405	66.5
703.963	71.5
704.521	68.5
705.078	63.5
705.636	59.5
706.194	65.5
706.751	62.5
707.308	65.5
707.866	64.5
708.423	59.5
708.98	62.5
709.537	63.5
710.095	58.5
710.652	56.5
711.209	55.5
711.765	58.5
712.322	55.5
712.879	57.5
713.436	54.5
713.992	51.5
714.549	49.5
715.106	48.5
715.662	54.5
716.218	47.5
716.775	50.5
717.331	47.5
717.887	46.5
718.443	46.5
719	44.5
719.556	45.5
720.112	41.5
720.667	43.5
721.223	41.5
721.779	41.5
722.335	43.5
722.89	41.5
723.446	42.5
724.002	39.5
724.557	39.5
725.112	38.5
725.668	42.5
726.223	35.5
726.778	41.5
727.333	34.5
727.888	44.5
728.443	41.5
728.998	40.5
729.553	45.5
730.108	38.5
730.663	37.5
731.218	32.5
731.772	36.5
732.327	32.5
732.881	32.5
733.436	36.5
733.99	33.5
734.545	34.5
735.099	37.5
735.653	28.5
736.207	29.5
736.761	31.5
737.315	35.5
737.869	28.5
738.423	32.5
738.977	30.5
739.531	27.5
740.084	30.5
740.638	25.5
741.192	28.5
741.745	27.5
742.299	25.5
742.852	31.5
743.405	27.5
743.959	19.5
744.512	26.5
745.065	26.5
745.618	22.5
746.171	29.5
746.724	22.5
747.277	26.5
747.83	16.5
748.382	19.5
748.935	22.5
749.488	20.5
750.04	24.5
750.593	22.5
751.145	22.5
751.698	22.5
752.25	21.5
752.802	22.5
753.354	26.5
753.906	21.5
754.458	18.5
755.01	17.5
755.562	20.5
756.114	21.5
756.666	25.5
757.218	19.5
757.769	19.5
758.321	19.5
758.873	22.5
759.424	19.5
759.975	22.5
760.527	18.5
761.078	19.5
761.629	16.5
762.181	18.5
762.732	18.5
763.283	17.5
763.834	15.5
764.385	16.5
764.935	18.5
765.486	16.5
766.037	18.5
766.588	18.5
767.138	17.5
767.689	14.5
768.239	13.5
768.79	13.5
769.34	11.5
769.89	16.5
770.44	13.5
770.991	15.5
771.541	12.5
772.091	14.5
772.641	14.5
773.191	17.5
773.74	11.5
774.29	11.5
774.84	15.5
775.39	13.5
775.939	12.5
776.489	16.5
777.038	7.5
777.588	12.5
778.137	16.5
778.686	13.5
779.235	11.5
779.784	14.5
780.334	12.5
780.883	12.5
781.431	10.5
781.98	11.5
782.529	10.5
783.078	13.5
783.627	9.5
784.175	7.5
784.724	10.5
785.272	8.5
785.821	10.5
786.369	12.5
786.917	10.5
787.466	9.5
788.014	10.5
788.562	12.5
789.11	10.5
789.658	10.5
790.206	11.5
790.754	17.5
791.302	14.5
791.849	10.5
792.397	11.5
792.945	14.5
793.492	7.5
794.04	5.5
794.587	5.5
795.134	10.5
795.682	7.5
796.229	8.5
796.776	13.5
797.323	9.5
797.87	7.5
798.417	5.5
798.964	4.5
799.511	7.5
800.058	2.5
800.604	4.5
801.151	9.5
801.698	8.5
802.244	8.5
802.791	6.5
803.337	11.5
803.883	3.5
804.43	8.5
804.976	6.5
805.522	4.5
806.068	6.5
806.614	5.5
807.16	5.5
807.706	4.5
808.252	2.5
808.797	6.5
809.343	8.5
809.889	7.5
810.434	6.5
810.98	9.5
811.525	7.5
812.071	4.5
812.616	4.5
813.161	10.5
813.706	6.5
814.252	1.5
814.797	6.5
815.342	3.5
815.886	4.5
816.431	6.5
816.976	3.5
817.521	5.5
818.066	2.5
818.61	3.5
819.155	1.5
819.699	7.5
820.244	4.5
820.788	5.5
821.332	2.5
821.876	0.5
822.421	10.5
822.965	3.5
823.509	5.5
824.053	6.5
824.597	3.5
825.14	4.5
825.684	3.5
826.228	4.5
826.771	5.5
827.315	1.5
827.859	6.5
828.402	1.5
828.945	0.5
829.489	5.5
830.032	5.5
830.575	5.5
831.118	-0.5
831.661	4.5
832.204	6.5
832.747	4.5
833.29	3.5
833.833	2.5
834.376	2.5
834.918	4.5
835.461	0.5
836.004	2.5
836.546	1.5
837.088	2.5
837.631	3.5
838.173	0.5
838.715	3.5
839.257	2.5
839.8	3.5
840.342	4.5
840.884	-0.5
841.425	-1.5
841.967	4.5
842.509	3.5
843.051	1.5
843.592	1.5
844.134	2.5
844.676	0.5
845.217	3.5
845.758	2.5
846.3	3.5
846.841	-0.5
847.382	1.5
847.923	3.5
848.464	3.5
849.005	1.5
849.546	4.5
850.087	2.5
850.628	-0.5
851.169	-0.5
851.709	2.5
852.25	3.5
852.791	0.5
853.331	4.5
853.871	3.5
854.412	2.5
854.952	3.5
855.492	-1.5
856.033	-0.5
856.573	0.5
857.113	4.5
857.653	-4.5
858.193	1.5
858.732	1.5
859.272	5.5
859.812	2.5
860.352	2.5
860.891	1.5
861.431	1.5
861.97	1.5
862.509	-2.5
863.049	1.5
863.588	0.5
864.127	0.5
864.666	1.5
865.205	1.5
865.744	2.5
866.283	0.5
866.822	0.5
867.361	1.5
867.9	-0.5
868.438	2.5
868.977	1.5
869.516	-1.5
870.054	0.5
870.593	2.5
871.131	3.5
871.669	2.5
872.207	4.5
872.746	0.5
873.284	2.5
873.822	1.5
874.36	2.5
874.898	0.5
875.435	-1.5
875.973	1.5
876.511	2.5
877.048	-1.5
877.586	-2.5
878.124	0.5
878.661	1.5
879.198	-0.5
879.736	3.5
880.273	1.5
880.81	2.5
881.347	0.5
881.884	1.5
882.421	5.5
882.958	1.5
883.495	0.5
884.032	1.5
884.569	4.5
885.105	0.5
885.642	0.5
886.178	-1.5
886.715	4.5
887.251	-1.5
887.788	0.5
888.324	1.5
888.86	0.5
889.396	-4.5
889.932	-0.5
890.468	1.5
891.004	1.5
891.54	-2.5
892.076	0.5
892.612	0.5
893.147	1.5
893.683	4.5
894.219	1.5
894.754	1.5
895.29	-0.5
895.825	-3.5
896.36	-1.5
896.896	-0.5
897.431	-0.5
897.966	-0.5
898.501	-0.5
899.036	2.5
899.571	1.5
900.106	0.5
900.64	2.5
901.175	-0.5
901.71	-3.5
902.244	-2.5
902.779	-0.5
903.313	0.5
903.848	0.5
904.382	0.5
904.916	3.5
905.45	0.5
905.985	0.5
906.519	0.5
907.053	-0.5
907.587	1.5
908.12	1.5
908.654	3.5
909.188	1.5
909.722	0.5
910.255	3.5
910.789	1.5
911.322	5.5
911.856	1.5
912.389	0.5
912.922	1.5
913.456	4.5
913.989	-1.5
914.522	4.5
915.055	0.5
915.588	-0.5
916.121	0.5
916.653	0.5
917.186	1.5
917.719	2.5
918.252	1.5
918.784	-0.5
919.317	3.5
919.849	4.5
920.381	-1.5
920.914	5.5
921.446	-0.5
921.978	-2.5
922.51	4.5
923.042	0.5
923.574	0.5
924.106	2.5
924.638	1.5
925.17	0.5
925.701	-0.5
926.233	3.5
926.765	-1.5
927.296	0.5
927.828	1.5
928.359	0.5
928.89	-0.5
929.422	1.5
929.953	1.5
930.484	-1.5
931.015	-1.5
931.546	-1.5
932.077	-0.5
932.608	-2.5
933.138	-1.5
933.669	-4.5
934.2	0.5
934.73	-5.5
935.261	-3.5
