Data from LOOPyPMA-1_QEP046991__43__18-11-52-758.txt Node

Date: Sun May 11 18:11:52 CEST 2025
User: superuser
Spectrometer: QEP04699
Trigger mode: 4
Integration Time (sec): 1.000000E-1
Scans to average: 1
Electric dark correction enabled: true
Nonlinearity correction enabled: false
Boxcar width: 0
XAxis mode: Wavelengths
Number of Pixels in Spectrum: 1044
>>>>>Begin Spectral Data<<<<<
347.57	11
348.165	6
348.76	-2
349.355	-7
349.95	-1
350.545	0
351.14	1
351.735	3
352.33	2
352.924	-1
353.519	4
354.114	2
354.708	2
355.303	-1
355.897	-3
356.491	-2
357.086	3
357.68	2
358.274	0
358.868	2
359.462	2
360.056	-1
360.65	1
361.244	3
361.838	-2
362.431	1
363.025	-3
363.619	-1
364.212	2
364.806	1
365.399	3
365.993	1
366.586	-1
367.179	1
367.772	3
368.366	2
368.959	-1
369.552	3
370.145	1
370.738	2
371.331	1
371.923	2
372.516	2
373.109	1
373.701	1
374.294	2
374.887	7
375.479	1
376.071	2
376.664	1
377.256	0
377.848	-1
378.44	0
379.033	0
379.625	1
380.217	3
380.808	1
381.4	3
381.992	1
382.584	2
383.176	1
383.767	-3
384.359	-3
384.95	-1
385.542	1
386.133	3
386.725	-1
387.316	1
387.907	1
388.498	1
389.089	1
389.68	-3
390.271	2
390.862	5
391.453	5
392.044	4
392.635	2
393.225	1
393.816	2
394.407	3
394.997	2
395.588	1
396.178	3
396.768	1
397.359	0
397.949	0
398.539	3
399.129	7
399.719	-1
400.309	3
400.899	1
401.489	2
402.079	3
402.668	3
403.258	4
403.848	3
404.437	4
405.027	-4
405.616	3
406.206	6
406.795	6
407.384	5
407.973	6
408.563	6
409.152	7
409.741	6
410.33	3
410.919	5
411.508	4
412.096	3
412.685	4
413.274	6
413.862	9
414.451	2
415.039	7
415.628	11
416.216	10
416.805	7
417.393	11
417.981	7
418.569	14
419.157	15
419.745	11
420.333	14
420.921	15
421.509	21
422.097	19
422.685	16
423.272	19
423.86	24
424.447	27
425.035	26
425.622	23
426.21	23
426.797	30
427.384	32
427.972	34
428.559	37
429.146	41
429.733	42
430.32	42
430.907	51
431.494	41
432.08	56
432.667	59
433.254	68
433.84	66
434.427	80
435.013	83
435.6	84
436.186	86
436.772	101
437.359	106
437.945	121
438.531	126
439.117	137
439.703	149
440.289	156
440.875	186
441.461	189
442.047	207
442.632	226
443.218	238
443.804	262
444.389	263
444.975	287
445.56	306
446.145	336
446.731	365
447.316	380
447.901	401
448.486	437
449.071	475
449.656	528
450.241	529
450.826	587
451.411	620
451.996	661
452.58	717
453.165	788
453.75	817
454.334	890
454.919	970
455.503	1051
456.087	1149
456.672	1216
457.256	1326
457.84	1415
458.424	1480
459.008	1615
459.592	1701
460.176	1787
460.76	1905
461.344	1999
461.927	2058
462.511	2155
463.095	2199
463.678	2265
464.262	2266
464.845	2267
465.429	2315
466.012	2271
466.595	2234
467.178	2211
467.762	2101
468.345	2043
468.928	1955
469.511	1888
470.094	1729
470.676	1644
471.259	1569
471.842	1444
472.425	1394
473.007	1284
473.59	1178
474.172	1108
474.755	1037
475.337	990
475.919	907
476.502	871
477.084	809
477.666	790
478.248	747
478.83	690
479.412	676
479.994	629
480.576	589
481.157	569
481.739	534
482.321	496
482.902	486
483.484	451
484.065	424
484.647	399
485.228	371
485.809	357
486.391	336
486.972	309
487.553	289
488.134	293
488.715	261
489.296	249
489.877	239
490.458	206
491.038	201
491.619	195
492.2	180
492.78	176
493.361	165
493.941	159
494.522	152
495.102	134
495.682	141
496.262	129
496.843	128
497.423	124
498.003	118
498.583	117
499.163	116
499.742	109
500.322	105
500.902	101
501.482	98
502.061	93
502.641	101
503.22	100
503.8	90
504.379	90
504.958	86
505.538	81
506.117	79
506.696	83
507.275	83
507.854	76
508.433	77
509.012	78
509.591	85
510.169	82
510.748	77
511.327	87
511.905	93
512.484	87
513.062	99
513.641	96
514.219	107
514.797	105
515.375	110
515.954	111
516.532	123
517.11	136
517.688	132
518.266	147
518.843	149
519.421	156
519.999	172
520.577	173
521.154	175
521.732	185
522.309	192
522.887	207
523.464	217
524.041	228
524.619	220
525.196	243
525.773	239
526.35	265
526.927	266
527.504	259
528.081	266
528.658	275
529.235	281
529.811	280
530.388	282
530.964	290
531.541	273
532.117	292
532.694	296
533.27	289
533.846	292
534.423	289
534.999	286
535.575	291
536.151	287
536.727	268
537.303	269
537.879	276
538.455	277
539.03	283
539.606	272
540.182	281
540.757	271
541.333	270
541.908	258
542.483	264
543.059	264
543.634	260
544.209	254
544.784	256
545.359	254
545.934	249
546.509	245
547.084	242
547.659	247
548.234	246
548.808	240
549.383	237
549.958	242
550.532	234
551.107	230
551.681	234
552.255	228
552.83	236
553.404	225
553.978	223
554.552	236
555.126	232
555.7	228
556.274	226
556.848	229
557.422	233
557.995	227
558.569	240
559.143	238
559.716	243
560.29	230
560.863	252
561.437	254
562.01	241
562.583	262
563.156	251
563.729	254
564.302	260
564.875	272
565.448	262
566.021	263
566.594	273
567.167	268
567.74	268
568.312	282
568.885	278
569.457	283
570.03	284
570.602	291
571.174	292
571.747	290
572.319	289
572.891	301
573.463	290
574.035	296
574.607	286
575.179	279
575.751	283
576.323	292
576.894	301
577.466	283
578.038	295
578.609	284
579.181	292
579.752	289
580.323	289
580.895	283
581.466	285
582.037	296
582.608	287
583.179	293
583.75	291
584.321	295
584.892	298
585.463	299
586.033	304
586.604	308
587.175	294
587.745	299
588.316	311
588.886	305
589.457	296
590.027	302
590.597	300
591.167	292
591.737	294
592.308	294
592.878	290
593.447	289
594.017	299
594.587	288
595.157	286
595.727	291
596.296	282
596.866	278
597.435	292
598.005	275
598.574	289
599.143	285
599.713	276
600.282	270
600.851	275
601.42	267
601.989	271
602.558	270
603.127	271
603.696	268
604.265	261
604.833	267
605.402	266
605.971	270
606.539	261
607.108	262
607.676	262
608.244	262
608.813	265
609.381	258
609.949	270
610.517	262
611.085	257
611.653	269
612.221	254
612.789	262
613.357	263
613.924	254
614.492	249
615.06	254
615.627	251
616.195	257
616.762	256
617.329	259
617.897	255
618.464	257
619.031	247
619.598	238
620.165	262
620.732	255
621.299	244
621.866	247
622.433	237
623	249
623.566	237
624.133	246
624.7	235
625.266	245
625.832	241
626.399	239
626.965	244
627.531	241
628.098	255
628.664	233
629.23	231
629.796	233
630.362	232
630.928	231
631.493	230
632.059	221
632.625	223
633.19	228
633.756	220
634.322	215
634.887	215
635.452	214
636.018	209
636.583	209
637.148	214
637.713	209
638.278	213
638.843	204
639.408	213
639.973	202
640.538	205
641.103	209
641.667	202
642.232	208
642.797	204
643.361	190
643.926	206
644.49	189
645.054	192
645.619	191
646.183	197
646.747	193
647.311	179
647.875	179
648.439	180
649.003	169
649.567	181
650.131	180
650.694	171
651.258	173
651.822	162
652.385	176
652.949	173
653.512	169
654.075	169
654.639	175
655.202	161
655.765	159
656.328	164
656.891	154
657.454	148
658.017	152
658.58	153
659.143	156
659.705	158
660.268	146
660.83	151
661.393	145
661.955	145
662.518	152
663.08	142
663.643	137
664.205	142
664.767	141
665.329	141
665.891	131
666.453	146
667.015	137
667.577	134
668.139	126
668.7	129
669.262	121
669.824	128
670.385	117
670.947	129
671.508	128
672.069	119
672.631	123
673.192	123
673.753	120
674.314	122
674.875	119
675.436	112
675.997	112
676.558	117
677.119	123
677.679	118
678.24	113
678.801	121
679.361	114
679.922	114
680.482	118
681.042	111
681.603	108
682.163	110
682.723	109
683.283	108
683.843	116
684.403	109
684.963	104
685.523	98
686.083	100
686.642	107
687.202	102
687.762	99
688.321	90
688.881	103
689.44	98
690	93
690.559	96
691.118	89
691.677	86
692.236	86
692.795	89
693.354	86
693.913	89
694.472	84
695.031	85
695.59	83
696.148	80
696.707	82
697.265	74
697.824	74
698.382	85
698.941	79
699.499	76
700.057	68
700.615	70
701.173	77
701.731	77
702.289	75
702.847	69
703.405	66
703.963	73
704.521	68
705.078	71
705.636	66
706.194	64
706.751	70
707.308	66
707.866	61
708.423	55
708.98	58
709.537	63
710.095	63
710.652	59
711.209	58
711.765	59
712.322	61
712.879	51
713.436	59
713.992	58
714.549	51
715.106	54
715.662	58
716.218	47
716.775	51
717.331	48
717.887	48
718.443	51
719	50
719.556	47
720.112	47
720.667	44
721.223	51
721.779	45
722.335	46
722.89	48
723.446	37
724.002	44
724.557	46
725.112	37
725.668	41
726.223	42
726.778	46
727.333	38
727.888	39
728.443	37
728.998	41
729.553	39
730.108	40
730.663	40
731.218	38
731.772	41
732.327	39
732.881	36
733.436	31
733.99	34
734.545	32
735.099	32
735.653	43
736.207	34
736.761	32
737.315	31
737.869	32
738.423	36
738.977	29
739.531	34
740.084	30
740.638	32
741.192	29
741.745	31
742.299	28
742.852	27
743.405	29
743.959	26
744.512	26
745.065	26
745.618	28
746.171	30
746.724	24
747.277	29
747.83	26
748.382	27
748.935	26
749.488	26
750.04	29
750.593	18
751.145	24
751.698	28
752.25	20
752.802	25
753.354	19
753.906	22
754.458	22
755.01	16
755.562	24
756.114	18
756.666	19
757.218	20
757.769	20
758.321	20
758.873	19
759.424	18
759.975	21
760.527	22
761.078	19
761.629	14
762.181	17
762.732	15
763.283	17
763.834	14
764.385	18
764.935	16
765.486	18
766.037	13
766.588	17
767.138	17
767.689	15
768.239	15
768.79	12
769.34	16
769.89	18
770.44	15
770.991	16
771.541	15
772.091	9
772.641	13
773.191	14
773.74	15
774.29	15
774.84	15
775.39	15
775.939	20
776.489	14
777.038	15
777.588	16
778.137	13
778.686	14
779.235	15
779.784	13
780.334	13
780.883	13
781.431	12
781.98	16
782.529	12
783.078	10
783.627	11
784.175	12
784.724	14
785.272	14
785.821	13
786.369	13
786.917	12
787.466	11
788.014	13
788.562	10
789.11	15
789.658	12
790.206	13
790.754	10
791.302	13
791.849	9
792.397	11
792.945	9
793.492	13
794.04	13
794.587	15
795.134	10
795.682	11
796.229	9
796.776	9
797.323	13
797.87	11
798.417	10
798.964	7
799.511	6
800.058	8
800.604	7
801.151	6
801.698	5
802.244	6
802.791	9
803.337	9
803.883	7
804.43	8
804.976	7
805.522	6
806.068	7
806.614	6
807.16	7
807.706	9
808.252	7
808.797	5
809.343	5
809.889	5
810.434	5
810.98	5
811.525	4
812.071	10
812.616	5
813.161	6
813.706	6
814.252	11
814.797	6
815.342	6
815.886	7
816.431	4
816.976	7
817.521	6
818.066	7
818.61	7
819.155	5
819.699	8
820.244	2
820.788	6
821.332	7
821.876	6
822.421	5
822.965	0
823.509	8
824.053	4
824.597	5
825.14	3
825.684	6
826.228	5
826.771	0
827.315	4
827.859	5
828.402	1
828.945	4
829.489	5
830.032	5
830.575	0
831.118	1
831.661	1
832.204	3
832.747	6
833.29	5
833.833	7
834.376	6
834.918	2
835.461	4
836.004	4
836.546	6
837.088	-1
837.631	6
838.173	3
838.715	1
839.257	4
839.8	4
840.342	6
840.884	0
841.425	0
841.967	4
842.509	3
843.051	3
843.592	1
844.134	2
844.676	1
845.217	2
845.758	3
846.3	1
846.841	3
847.382	2
847.923	0
848.464	7
849.005	1
849.546	4
850.087	3
850.628	5
851.169	4
851.709	0
852.25	3
852.791	4
853.331	4
853.871	2
854.412	-1
854.952	3
855.492	0
856.033	0
856.573	3
857.113	5
857.653	5
858.193	3
858.732	4
859.272	5
859.812	-2
860.352	1
860.891	-1
861.431	4
861.97	-4
862.509	3
863.049	-2
863.588	0
864.127	1
864.666	3
865.205	2
865.744	0
866.283	7
866.822	-1
867.361	-1
867.9	0
868.438	-1
868.977	-1
869.516	1
870.054	2
870.593	-1
871.131	1
871.669	0
872.207	0
872.746	1
873.284	-1
873.822	5
874.36	2
874.898	1
875.435	2
875.973	0
876.511	5
877.048	-2
877.586	3
878.124	0
878.661	0
879.198	1
879.736	2
880.273	2
880.81	1
881.347	-2
881.884	0
882.421	4
882.958	1
883.495	2
884.032	4
884.569	0
885.105	-1
885.642	5
886.178	2
886.715	1
887.251	-3
887.788	2
888.324	4
888.86	5
889.396	-2
889.932	5
890.468	2
891.004	3
891.54	3
892.076	1
892.612	1
893.147	1
893.683	1
894.219	0
894.754	4
895.29	1
895.825	3
896.36	5
896.896	5
897.431	-1
897.966	0
898.501	4
899.036	-3
899.571	-1
900.106	-2
900.64	0
901.175	1
901.71	1
902.244	1
902.779	1
903.313	1
903.848	2
904.382	-1
904.916	0
905.45	1
905.985	0
906.519	-2
907.053	1
907.587	2
908.12	2
908.654	-1
909.188	0
909.722	0
910.255	1
910.789	0
911.322	3
911.856	3
912.389	4
912.922	2
913.456	4
913.989	0
914.522	0
915.055	2
915.588	-2
916.121	-2
916.653	0
917.186	0
917.719	0
918.252	-1
918.784	3
919.317	0
919.849	-1
920.381	-1
920.914	1
921.446	0
921.978	-2
922.51	0
923.042	3
923.574	2
924.106	2
924.638	-2
925.17	3
925.701	0
926.233	-3
926.765	0
927.296	0
927.828	2
928.359	2
928.89	1
929.422	-2
929.953	0
930.484	2
931.015	1
931.546	1
932.077	2
932.608	-1
933.138	0
933.669	-3
934.2	-3
934.73	-2
935.261	0
