Data from LOOPyPMA-1_QEP046991__15__18-11-24-757.txt Node

Date: Sun May 11 18:11:24 CEST 2025
User: superuser
Spectrometer: QEP04699
Trigger mode: 4
Integration Time (sec): 1.000000E-1
Scans to average: 1
Electric dark correction enabled: true
Nonlinearity correction enabled: false
Boxcar width: 0
XAxis mode: Wavelengths
Number of Pixels in Spectrum: 1044
>>>>>Begin Spectral Data<<<<<
347.57	7.62
348.165	3.62
348.76	-1.38
349.355	-6.38
349.95	-2.38
350.545	-6.38
351.14	-0.38
351.735	0.62
352.33	0.62
352.924	-1.38
353.519	-1.38
354.114	0.62
354.708	-1.38
355.303	2.62
355.897	0.62
356.491	-1.38
357.086	-4.38
357.68	0.62
358.274	1.62
358.868	-5.38
359.462	-6.38
360.056	1.62
360.65	-2.38
361.244	-0.38
361.838	-3.38
362.431	0.62
363.025	-0.38
363.619	1.62
364.212	1.62
364.806	1.62
365.399	0.62
365.993	0.62
366.586	-0.38
367.179	-1.38
367.772	-0.38
368.366	-5.38
368.959	-2.38
369.552	-0.38
370.145	0.62
370.738	-1.38
371.331	-1.38
371.923	-0.38
372.516	0.62
373.109	-3.38
373.701	-1.38
374.294	-0.38
374.887	-4.38
375.479	0.62
376.071	-1.38
376.664	-2.38
377.256	0.62
377.848	-2.38
378.44	-1.38
379.033	-2.38
379.625	0.62
380.217	0.62
380.808	-1.38
381.4	-0.38
381.992	-0.38
382.584	-2.38
383.176	0.62
383.767	1.62
384.359	-1.38
384.95	-2.38
385.542	-3.38
386.133	-3.38
386.725	-2.38
387.316	-1.38
387.907	2.62
388.498	0.62
389.089	-2.38
389.68	-0.38
390.271	-1.38
390.862	-0.38
391.453	-0.38
392.044	-0.38
392.635	-1.38
393.225	-0.38
393.816	-1.38
394.407	-0.38
394.997	0.62
395.588	0.62
396.178	-0.38
396.768	0.62
397.359	-2.38
397.949	-3.38
398.539	3.62
399.129	0.62
399.719	1.62
400.309	2.62
400.899	-0.38
401.489	-3.38
402.079	2.62
402.668	0.62
403.258	1.62
403.848	1.62
404.437	0.62
405.027	0.62
405.616	3.62
406.206	1.62
406.795	3.62
407.384	-0.38
407.973	0.62
408.563	1.62
409.152	-1.38
409.741	3.62
410.33	1.62
410.919	7.62
411.508	6.62
412.096	5.62
412.685	1.62
413.274	1.62
413.862	7.62
414.451	3.62
415.039	6.62
415.628	7.62
416.216	6.62
416.805	9.62
417.393	1.62
417.981	8.62
418.569	11.62
419.157	5.62
419.745	11.62
420.333	9.62
420.921	12.62
421.509	14.62
422.097	12.62
422.685	16.62
423.272	16.62
423.86	17.62
424.447	21.62
425.035	19.62
425.622	27.62
426.21	24.62
426.797	29.62
427.384	30.62
427.972	28.62
428.559	36.62
429.146	35.62
429.733	36.62
430.32	35.62
430.907	43.62
431.494	53.62
432.08	53.62
432.667	55.62
433.254	65.62
433.84	69.62
434.427	70.62
435.013	76.62
435.6	79.62
436.186	91.62
436.772	98.62
437.359	102.62
437.945	116.62
438.531	119.62
439.117	142.62
439.703	154.62
440.289	157.62
440.875	172.62
441.461	181.62
442.047	197.62
442.632	208.62
443.218	229.62
443.804	241.62
444.389	253.62
444.975	291.62
445.56	310.62
446.145	324.62
446.731	353.62
447.316	371.62
447.901	407.62
448.486	420.62
449.071	458.62
449.656	478.62
450.241	528.62
450.826	592.62
451.411	612.62
451.996	651.62
452.58	718.62
453.165	758.62
453.75	823.62
454.334	872.62
454.919	935.62
455.503	1010.62
456.087	1103.62
456.672	1171.62
457.256	1239.62
457.84	1351.62
458.424	1431.62
459.008	1552.62
459.592	1651.62
460.176	1690.62
460.76	1859.62
461.344	1929.62
461.927	2022.62
462.511	2087.62
463.095	2138.62
463.678	2184.62
464.262	2199.62
464.845	2219.62
465.429	2235.62
466.012	2209.62
466.595	2159.62
467.178	2120.62
467.762	1980.62
468.345	1963.62
468.928	1892.62
469.511	1795.62
470.094	1686.62
470.676	1605.62
471.259	1514.62
471.842	1392.62
472.425	1305.62
473.007	1212.62
473.59	1153.62
474.172	1059.62
474.755	987.62
475.337	932.62
475.919	877.62
476.502	812.62
477.084	774.62
477.666	739.62
478.248	696.62
478.83	636.62
479.412	639.62
479.994	598.62
480.576	574.62
481.157	541.62
481.739	491.62
482.321	475.62
482.902	478.62
483.484	430.62
484.065	415.62
484.647	381.62
485.228	351.62
485.809	339.62
486.391	319.62
486.972	296.62
487.553	271.62
488.134	259.62
488.715	245.62
489.296	230.62
489.877	216.62
490.458	201.62
491.038	194.62
491.619	179.62
492.2	178.62
492.78	158.62
493.361	154.62
493.941	139.62
494.522	136.62
495.102	140.62
495.682	128.62
496.262	128.62
496.843	112.62
497.423	115.62
498.003	112.62
498.583	110.62
499.163	100.62
499.742	95.62
500.322	101.62
500.902	97.62
501.482	90.62
502.061	91.62
502.641	93.62
503.22	88.62
503.8	84.62
504.379	78.62
504.958	81.62
505.538	78.62
506.117	78.62
506.696	82.62
507.275	80.62
507.854	72.62
508.433	79.62
509.012	76.62
509.591	85.62
510.169	86.62
510.748	82.62
511.327	85.62
511.905	89.62
512.484	89.62
513.062	94.62
513.641	105.62
514.219	99.62
514.797	108.62
515.375	107.62
515.954	117.62
516.532	131.62
517.11	128.62
517.688	148.62
518.266	150.62
518.843	164.62
519.421	169.62
519.999	179.62
520.577	181.62
521.154	197.62
521.732	208.62
522.309	207.62
522.887	221.62
523.464	236.62
524.041	226.62
524.619	253.62
525.196	252.62
525.773	272.62
526.35	261.62
526.927	281.62
527.504	291.62
528.081	289.62
528.658	301.62
529.235	302.62
529.811	302.62
530.388	307.62
530.964	314.62
531.541	309.62
532.117	308.62
532.694	320.62
533.27	311.62
533.846	306.62
534.423	304.62
534.999	316.62
535.575	304.62
536.151	308.62
536.727	305.62
537.303	305.62
537.879	301.62
538.455	304.62
539.03	296.62
539.606	291.62
540.182	302.62
540.757	289.62
541.333	290.62
541.908	302.62
542.483	288.62
543.059	287.62
543.634	292.62
544.209	285.62
544.784	266.62
545.359	269.62
545.934	275.62
546.509	268.62
547.084	269.62
547.659	266.62
548.234	266.62
548.808	264.62
549.383	267.62
549.958	264.62
550.532	265.62
551.107	260.62
551.681	253.62
552.255	249.62
552.83	251.62
553.404	251.62
553.978	251.62
554.552	246.62
555.126	263.62
555.7	249.62
556.274	243.62
556.848	247.62
557.422	251.62
557.995	254.62
558.569	263.62
559.143	262.62
559.716	263.62
560.29	269.62
560.863	272.62
561.437	275.62
562.01	263.62
562.583	269.62
563.156	277.62
563.729	276.62
564.302	284.62
564.875	285.62
565.448	290.62
566.021	298.62
566.594	294.62
567.167	310.62
567.74	316.62
568.312	305.62
568.885	315.62
569.457	323.62
570.03	330.62
570.602	317.62
571.174	315.62
571.747	327.62
572.319	311.62
572.891	325.62
573.463	319.62
574.035	316.62
574.607	326.62
575.179	315.62
575.751	322.62
576.323	316.62
576.894	311.62
577.466	318.62
578.038	309.62
578.609	317.62
579.181	314.62
579.752	321.62
580.323	312.62
580.895	324.62
581.466	329.62
582.037	312.62
582.608	311.62
583.179	345.62
583.75	318.62
584.321	328.62
584.892	322.62
585.463	335.62
586.033	338.62
586.604	332.62
587.175	339.62
587.745	329.62
588.316	346.62
588.886	337.62
589.457	332.62
590.027	345.62
590.597	331.62
591.167	342.62
591.737	328.62
592.308	339.62
592.878	328.62
593.447	342.62
594.017	329.62
594.587	328.62
595.157	325.62
595.727	316.62
596.296	320.62
596.866	320.62
597.435	328.62
598.005	314.62
598.574	309.62
599.143	302.62
599.713	306.62
600.282	294.62
600.851	300.62
601.42	299.62
601.989	302.62
602.558	305.62
603.127	297.62
603.696	290.62
604.265	284.62
604.833	299.62
605.402	294.62
605.971	309.62
606.539	294.62
607.108	297.62
607.676	286.62
608.244	300.62
608.813	284.62
609.381	283.62
609.949	295.62
610.517	298.62
611.085	274.62
611.653	291.62
612.221	275.62
612.789	275.62
613.357	271.62
613.924	280.62
614.492	273.62
615.06	280.62
615.627	280.62
616.195	284.62
616.762	276.62
617.329	287.62
617.897	268.62
618.464	274.62
619.031	284.62
619.598	278.62
620.165	284.62
620.732	261.62
621.299	269.62
621.866	277.62
622.433	277.62
623	277.62
623.566	280.62
624.133	264.62
624.7	274.62
625.266	263.62
625.832	265.62
626.399	268.62
626.965	257.62
627.531	262.62
628.098	260.62
628.664	264.62
629.23	252.62
629.796	274.62
630.362	252.62
630.928	250.62
631.493	255.62
632.059	241.62
632.625	250.62
633.19	235.62
633.756	257.62
634.322	250.62
634.887	246.62
635.452	241.62
636.018	231.62
636.583	243.62
637.148	238.62
637.713	227.62
638.278	239.62
638.843	222.62
639.408	237.62
639.973	225.62
640.538	230.62
641.103	223.62
641.667	221.62
642.232	223.62
642.797	224.62
643.361	222.62
643.926	216.62
644.49	213.62
645.054	216.62
645.619	206.62
646.183	203.62
646.747	214.62
647.311	205.62
647.875	213.62
648.439	198.62
649.003	202.62
649.567	191.62
650.131	191.62
650.694	192.62
651.258	186.62
651.822	195.62
652.385	192.62
652.949	185.62
653.512	186.62
654.075	189.62
654.639	177.62
655.202	189.62
655.765	185.62
656.328	179.62
656.891	174.62
657.454	177.62
658.017	185.62
658.58	163.62
659.143	170.62
659.705	169.62
660.268	174.62
660.83	165.62
661.393	162.62
661.955	166.62
662.518	160.62
663.08	155.62
663.643	161.62
664.205	152.62
664.767	153.62
665.329	154.62
665.891	160.62
666.453	153.62
667.015	149.62
667.577	142.62
668.139	148.62
668.7	145.62
669.262	150.62
669.824	147.62
670.385	142.62
670.947	142.62
671.508	140.62
672.069	130.62
672.631	129.62
673.192	143.62
673.753	126.62
674.314	138.62
674.875	127.62
675.436	129.62
675.997	135.62
676.558	136.62
677.119	130.62
677.679	125.62
678.24	135.62
678.801	127.62
679.361	119.62
679.922	123.62
680.482	118.62
681.042	121.62
681.603	124.62
682.163	125.62
682.723	128.62
683.283	119.62
683.843	119.62
684.403	122.62
684.963	119.62
685.523	117.62
686.083	114.62
686.642	117.62
687.202	100.62
687.762	113.62
688.321	98.62
688.881	112.62
689.44	99.62
690	107.62
690.559	107.62
691.118	101.62
691.677	100.62
692.236	99.62
692.795	90.62
693.354	99.62
693.913	83.62
694.472	88.62
695.031	81.62
695.59	86.62
696.148	86.62
696.707	83.62
697.265	92.62
697.824	85.62
698.382	80.62
698.941	85.62
699.499	81.62
700.057	84.62
700.615	73.62
701.173	76.62
701.731	83.62
702.289	79.62
702.847	72.62
703.405	77.62
703.963	73.62
704.521	76.62
705.078	63.62
705.636	76.62
706.194	69.62
706.751	67.62
707.308	67.62
707.866	63.62
708.423	74.62
708.98	64.62
709.537	65.62
710.095	64.62
710.652	68.62
711.209	66.62
711.765	58.62
712.322	65.62
712.879	61.62
713.436	62.62
713.992	62.62
714.549	58.62
715.106	64.62
715.662	56.62
716.218	56.62
716.775	57.62
717.331	50.62
717.887	49.62
718.443	55.62
719	55.62
719.556	53.62
720.112	49.62
720.667	47.62
721.223	48.62
721.779	42.62
722.335	47.62
722.89	46.62
723.446	43.62
724.002	45.62
724.557	51.62
725.112	44.62
725.668	44.62
726.223	42.62
726.778	42.62
727.333	43.62
727.888	45.62
728.443	42.62
728.998	50.62
729.553	37.62
730.108	46.62
730.663	41.62
731.218	38.62
731.772	39.62
732.327	40.62
732.881	37.62
733.436	35.62
733.99	29.62
734.545	37.62
735.099	43.62
735.653	40.62
736.207	37.62
736.761	40.62
737.315	29.62
737.869	34.62
738.423	35.62
738.977	36.62
739.531	31.62
740.084	27.62
740.638	34.62
741.192	28.62
741.745	32.62
742.299	28.62
742.852	32.62
743.405	36.62
743.959	30.62
744.512	30.62
745.065	27.62
745.618	23.62
746.171	24.62
746.724	25.62
747.277	24.62
747.83	21.62
748.382	31.62
748.935	25.62
749.488	26.62
750.04	24.62
750.593	29.62
751.145	24.62
751.698	24.62
752.25	26.62
752.802	20.62
753.354	20.62
753.906	25.62
754.458	26.62
755.01	20.62
755.562	26.62
756.114	20.62
756.666	20.62
757.218	19.62
757.769	19.62
758.321	19.62
758.873	19.62
759.424	19.62
759.975	14.62
760.527	19.62
761.078	17.62
761.629	17.62
762.181	21.62
762.732	20.62
763.283	15.62
763.834	18.62
764.385	21.62
764.935	16.62
765.486	15.62
766.037	18.62
766.588	17.62
767.138	12.62
767.689	16.62
768.239	18.62
768.79	18.62
769.34	19.62
769.89	12.62
770.44	14.62
770.991	12.62
771.541	16.62
772.091	11.62
772.641	18.62
773.191	16.62
773.74	13.62
774.29	13.62
774.84	10.62
775.39	13.62
775.939	18.62
776.489	13.62
777.038	15.62
777.588	14.62
778.137	18.62
778.686	12.62
779.235	13.62
779.784	14.62
780.334	10.62
780.883	15.62
781.431	14.62
781.98	10.62
782.529	16.62
783.078	9.62
783.627	11.62
784.175	13.62
784.724	9.62
785.272	13.62
785.821	18.62
786.369	14.62
786.917	10.62
787.466	7.62
788.014	9.62
788.562	12.62
789.11	8.62
789.658	12.62
790.206	5.62
790.754	14.62
791.302	9.62
791.849	8.62
792.397	8.62
792.945	6.62
793.492	9.62
794.04	11.62
794.587	9.62
795.134	5.62
795.682	9.62
796.229	8.62
796.776	11.62
797.323	8.62
797.87	10.62
798.417	6.62
798.964	7.62
799.511	9.62
800.058	7.62
800.604	10.62
801.151	6.62
801.698	3.62
802.244	8.62
802.791	7.62
803.337	5.62
803.883	4.62
804.43	4.62
804.976	7.62
805.522	6.62
806.068	7.62
806.614	6.62
807.16	6.62
807.706	9.62
808.252	6.62
808.797	8.62
809.343	3.62
809.889	5.62
810.434	3.62
810.98	5.62
811.525	4.62
812.071	5.62
812.616	7.62
813.161	7.62
813.706	5.62
814.252	3.62
814.797	6.62
815.342	5.62
815.886	5.62
816.431	2.62
816.976	4.62
817.521	-1.38
818.066	3.62
818.61	4.62
819.155	6.62
819.699	0.62
820.244	5.62
820.788	5.62
821.332	2.62
821.876	1.62
822.421	2.62
822.965	-0.38
823.509	3.62
824.053	5.62
824.597	2.62
825.14	-0.38
825.684	5.62
826.228	3.62
826.771	2.62
827.315	6.62
827.859	4.62
828.402	0.62
828.945	3.62
829.489	4.62
830.032	-3.38
830.575	4.62
831.118	5.62
831.661	2.62
832.204	4.62
832.747	3.62
833.29	0.62
833.833	1.62
834.376	2.62
834.918	0.62
835.461	6.62
836.004	3.62
836.546	0.62
837.088	1.62
837.631	-1.38
838.173	0.62
838.715	-0.38
839.257	-1.38
839.8	1.62
840.342	-0.38
840.884	0.62
841.425	0.62
841.967	3.62
842.509	1.62
843.051	3.62
843.592	0.62
844.134	2.62
844.676	1.62
845.217	-0.38
845.758	2.62
846.3	3.62
846.841	-0.38
847.382	-2.38
847.923	0.62
848.464	-0.38
849.005	0.62
849.546	-0.38
850.087	4.62
850.628	0.62
851.169	1.62
851.709	2.62
852.25	-2.38
852.791	-1.38
853.331	2.62
853.871	4.62
854.412	1.62
854.952	-0.38
855.492	-0.38
856.033	1.62
856.573	-3.38
857.113	-1.38
857.653	3.62
858.193	3.62
858.732	1.62
859.272	-1.38
859.812	-1.38
860.352	3.62
860.891	-3.38
861.431	4.62
861.97	-0.38
862.509	0.62
863.049	0.62
863.588	-0.38
864.127	0.62
864.666	0.62
865.205	0.62
865.744	1.62
866.283	0.62
866.822	5.62
867.361	-3.38
867.9	1.62
868.438	-0.38
868.977	-0.38
869.516	-0.38
870.054	-0.38
870.593	1.62
871.131	1.62
871.669	-1.38
872.207	0.62
872.746	0.62
873.284	-1.38
873.822	-2.38
874.36	0.62
874.898	2.62
875.435	-0.38
875.973	3.62
876.511	2.62
877.048	-0.38
877.586	0.62
878.124	-2.38
878.661	1.62
879.198	-2.38
879.736	-3.38
880.273	1.62
880.81	0.62
881.347	-0.38
881.884	-3.38
882.421	0.62
882.958	-1.38
883.495	0.62
884.032	-1.38
884.569	-2.38
885.105	0.62
885.642	4.62
886.178	0.62
886.715	-1.38
887.251	-2.38
887.788	1.62
888.324	1.62
888.86	0.62
889.396	-1.38
889.932	0.62
890.468	-3.38
891.004	-2.38
891.54	0.62
892.076	-0.38
892.612	0.62
893.147	-0.38
893.683	-2.38
894.219	3.62
894.754	-2.38
895.29	-2.38
895.825	-4.38
896.36	-3.38
896.896	1.62
897.431	-0.38
897.966	0.62
898.501	0.62
899.036	1.62
899.571	-1.38
900.106	1.62
900.64	0.62
901.175	-0.38
901.71	2.62
902.244	1.62
902.779	0.62
903.313	-3.38
903.848	2.62
904.382	0.62
904.916	0.62
905.45	-1.38
905.985	0.62
906.519	-3.38
907.053	-1.38
907.587	-2.38
908.12	-0.38
908.654	-2.38
909.188	-1.38
909.722	-3.38
910.255	-1.38
910.789	-1.38
911.322	-0.38
911.856	1.62
912.389	0.62
912.922	1.62
913.456	-0.38
913.989	0.62
914.522	-0.38
915.055	1.62
915.588	-1.38
916.121	0.62
916.653	-0.38
917.186	-0.38
917.719	1.62
918.252	-0.38
918.784	-0.38
919.317	-1.38
919.849	-2.38
920.381	-2.38
920.914	5.62
921.446	1.62
921.978	1.62
922.51	-5.38
923.042	1.62
923.574	0.62
924.106	-3.38
924.638	-0.38
925.17	-0.38
925.701	-3.38
926.233	-2.38
926.765	-2.38
927.296	1.62
927.828	-2.38
928.359	0.62
928.89	-2.38
929.422	-2.38
929.953	-1.38
930.484	-2.38
931.015	-1.38
931.546	-0.38
932.077	-0.38
932.608	-0.38
933.138	-0.38
933.669	-0.38
934.2	-3.38
934.73	-1.38
935.261	1.62
