Data from LOOPyPMA-1_QEP046991__2__18-11-11-757.txt Node

Date: Sun May 11 18:11:11 CEST 2025
User: superuser
Spectrometer: QEP04699
Trigger mode: 4
Integration Time (sec): 1.000000E-1
Scans to average: 1
Electric dark correction enabled: true
Nonlinearity correction enabled: false
Boxcar width: 0
XAxis mode: Wavelengths
Number of Pixels in Spectrum: 1044
>>>>>Begin Spectral Data<<<<<
347.57	12
348.165	1
348.76	-2
349.355	-7
349.95	0
350.545	3
351.14	0
351.735	1
352.33	5
352.924	3
353.519	1
354.114	2
354.708	-2
355.303	2
355.897	0
356.491	0
357.086	-1
357.68	0
358.274	3
358.868	1
359.462	0
360.056	-1
360.65	1
361.244	1
361.838	1
362.431	-1
363.025	5
363.619	1
364.212	-1
364.806	2
365.399	2
365.993	3
366.586	3
367.179	-2
367.772	-1
368.366	0
368.959	0
369.552	1
370.145	2
370.738	1
371.331	-1
371.923	1
372.516	5
373.109	2
373.701	2
374.294	-1
374.887	2
375.479	0
376.071	-1
376.664	-4
377.256	-3
377.848	4
378.44	-1
379.033	3
379.625	3
380.217	1
380.808	1
381.4	3
381.992	1
382.584	0
383.176	2
383.767	2
384.359	0
384.95	2
385.542	3
386.133	2
386.725	-1
387.316	3
387.907	2
388.498	3
389.089	0
389.68	0
390.271	1
390.862	4
391.453	-1
392.044	1
392.635	3
393.225	-1
393.816	4
394.407	4
394.997	3
395.588	2
396.178	2
396.768	1
397.359	-2
397.949	1
398.539	-2
399.129	5
399.719	1
400.309	7
400.899	2
401.489	2
402.079	0
402.668	4
403.258	3
403.848	7
404.437	4
405.027	4
405.616	5
406.206	7
406.795	3
407.384	3
407.973	2
408.563	7
409.152	2
409.741	4
410.33	5
410.919	-1
411.508	5
412.096	5
412.685	11
413.274	10
413.862	6
414.451	6
415.039	6
415.628	9
416.216	8
416.805	11
417.393	10
417.981	5
418.569	8
419.157	9
419.745	18
420.333	10
420.921	13
421.509	15
422.097	17
422.685	18
423.272	20
423.86	22
424.447	21
425.035	18
425.622	31
426.21	26
426.797	29
427.384	29
427.972	33
428.559	35
429.146	32
429.733	38
430.32	40
430.907	45
431.494	50
432.08	51
432.667	57
433.254	66
433.84	67
434.427	74
435.013	79
435.6	87
436.186	93
436.772	106
437.359	103
437.945	118
438.531	120
439.117	133
439.703	151
440.289	149
440.875	167
441.461	197
442.047	200
442.632	214
443.218	236
443.804	246
444.389	267
444.975	291
445.56	307
446.145	338
446.731	343
447.316	385
447.901	411
448.486	428
449.071	470
449.656	496
450.241	545
450.826	550
451.411	604
451.996	645
452.58	701
453.165	749
453.75	815
454.334	861
454.919	940
455.503	1023
456.087	1079
456.672	1169
457.256	1275
457.84	1376
458.424	1441
459.008	1560
459.592	1662
460.176	1740
460.76	1836
461.344	1923
461.927	2007
462.511	2075
463.095	2121
463.678	2187
464.262	2196
464.845	2194
465.429	2247
466.012	2217
466.595	2137
467.178	2143
467.762	2019
468.345	1969
468.928	1879
469.511	1807
470.094	1680
470.676	1608
471.259	1486
471.842	1403
472.425	1292
473.007	1222
473.59	1127
474.172	1064
474.755	982
475.337	921
475.919	880
476.502	818
477.084	784
477.666	729
478.248	688
478.83	665
479.412	632
479.994	605
480.576	572
481.157	526
481.739	500
482.321	469
482.902	460
483.484	433
484.065	412
484.647	398
485.228	371
485.809	332
486.391	304
486.972	297
487.553	288
488.134	261
488.715	248
489.296	232
489.877	215
490.458	200
491.038	186
491.619	171
492.2	171
492.78	153
493.361	147
493.941	150
494.522	146
495.102	134
495.682	122
496.262	124
496.843	119
497.423	119
498.003	114
498.583	108
499.163	106
499.742	107
500.322	101
500.902	102
501.482	93
502.061	88
502.641	85
503.22	89
503.8	88
504.379	86
504.958	89
505.538	81
506.117	88
506.696	77
507.275	83
507.854	77
508.433	79
509.012	77
509.591	82
510.169	81
510.748	81
511.327	82
511.905	100
512.484	93
513.062	98
513.641	100
514.219	109
514.797	112
515.375	108
515.954	126
516.532	128
517.11	138
517.688	143
518.266	148
518.843	155
519.421	168
519.999	171
520.577	186
521.154	193
521.732	206
522.309	214
522.887	225
523.464	227
524.041	233
524.619	248
525.196	263
525.773	276
526.35	273
526.927	276
527.504	274
528.081	286
528.658	301
529.235	289
529.811	298
530.388	317
530.964	307
531.541	313
532.117	313
532.694	315
533.27	308
533.846	321
534.423	318
534.999	314
535.575	314
536.151	320
536.727	299
537.303	317
537.879	309
538.455	316
539.03	296
539.606	303
540.182	303
540.757	287
541.333	286
541.908	306
542.483	293
543.059	294
543.634	281
544.209	274
544.784	279
545.359	273
545.934	278
546.509	261
547.084	279
547.659	262
548.234	264
548.808	269
549.383	267
549.958	260
550.532	257
551.107	264
551.681	237
552.255	243
552.83	245
553.404	249
553.978	261
554.552	256
555.126	245
555.7	251
556.274	252
556.848	246
557.422	249
557.995	252
558.569	255
559.143	255
559.716	267
560.29	275
560.863	260
561.437	267
562.01	280
562.583	286
563.156	277
563.729	276
564.302	286
564.875	293
565.448	296
566.021	293
566.594	302
567.167	304
567.74	302
568.312	291
568.885	320
569.457	322
570.03	302
570.602	313
571.174	307
571.747	321
572.319	327
572.891	317
573.463	335
574.035	314
574.607	320
575.179	330
575.751	333
576.323	320
576.894	319
577.466	318
578.038	312
578.609	325
579.181	331
579.752	329
580.323	333
580.895	311
581.466	329
582.037	328
582.608	321
583.179	320
583.75	320
584.321	328
584.892	315
585.463	334
586.033	335
586.604	328
587.175	345
587.745	328
588.316	336
588.886	343
589.457	331
590.027	333
590.597	334
591.167	332
591.737	338
592.308	340
592.878	336
593.447	334
594.017	334
594.587	330
595.157	330
595.727	324
596.296	322
596.866	329
597.435	310
598.005	311
598.574	312
599.143	306
599.713	297
600.282	315
600.851	311
601.42	309
601.989	308
602.558	290
603.127	309
603.696	299
604.265	296
604.833	293
605.402	293
605.971	298
606.539	295
607.108	293
607.676	297
608.244	301
608.813	278
609.381	293
609.949	286
610.517	289
611.085	285
611.653	278
612.221	308
612.789	291
613.357	301
613.924	286
614.492	275
615.06	297
615.627	281
616.195	278
616.762	290
617.329	283
617.897	285
618.464	286
619.031	285
619.598	269
620.165	289
620.732	281
621.299	272
621.866	284
622.433	261
623	279
623.566	281
624.133	284
624.7	259
625.266	270
625.832	266
626.399	271
626.965	253
627.531	250
628.098	251
628.664	259
629.23	270
629.796	256
630.362	254
630.928	255
631.493	251
632.059	264
632.625	246
633.19	254
633.756	255
634.322	263
634.887	247
635.452	246
636.018	237
636.583	246
637.148	239
637.713	237
638.278	236
638.843	241
639.408	233
639.973	225
640.538	244
641.103	221
641.667	228
642.232	215
642.797	233
643.361	224
643.926	217
644.49	215
645.054	218
645.619	216
646.183	214
646.747	211
647.311	213
647.875	209
648.439	208
649.003	201
649.567	198
650.131	201
650.694	195
651.258	192
651.822	189
652.385	190
652.949	191
653.512	189
654.075	179
654.639	187
655.202	189
655.765	188
656.328	186
656.891	175
657.454	180
658.017	173
658.58	170
659.143	169
659.705	166
660.268	161
660.83	164
661.393	169
661.955	161
662.518	176
663.08	159
663.643	162
664.205	158
664.767	153
665.329	144
665.891	155
666.453	156
667.015	162
667.577	154
668.139	152
668.7	144
669.262	153
669.824	136
670.385	145
670.947	132
671.508	139
672.069	137
672.631	142
673.192	138
673.753	136
674.314	138
674.875	137
675.436	129
675.997	127
676.558	134
677.119	127
677.679	122
678.24	127
678.801	131
679.361	128
679.922	130
680.482	129
681.042	130
681.603	124
682.163	125
682.723	124
683.283	119
683.843	116
684.403	118
684.963	118
685.523	120
686.083	117
686.642	110
687.202	108
687.762	108
688.321	102
688.881	112
689.44	110
690	111
690.559	102
691.118	96
691.677	97
692.236	102
692.795	98
693.354	98
693.913	99
694.472	99
695.031	103
695.59	88
696.148	85
696.707	91
697.265	90
697.824	85
698.382	91
698.941	86
699.499	84
700.057	85
700.615	79
701.173	79
701.731	83
702.289	85
702.847	78
703.405	82
703.963	75
704.521	79
705.078	74
705.636	72
706.194	78
706.751	79
707.308	73
707.866	67
708.423	69
708.98	66
709.537	64
710.095	67
710.652	61
711.209	60
711.765	64
712.322	67
712.879	67
713.436	59
713.992	60
714.549	61
715.106	54
715.662	61
716.218	58
716.775	55
717.331	55
717.887	59
718.443	57
719	50
719.556	53
720.112	44
720.667	55
721.223	53
721.779	53
722.335	51
722.89	60
723.446	53
724.002	50
724.557	51
725.112	45
725.668	43
726.223	47
726.778	49
727.333	45
727.888	45
728.443	45
728.998	49
729.553	44
730.108	43
730.663	48
731.218	38
731.772	37
732.327	41
732.881	39
733.436	38
733.99	35
734.545	36
735.099	38
735.653	36
736.207	38
736.761	36
737.315	35
737.869	34
738.423	35
738.977	30
739.531	31
740.084	33
740.638	32
741.192	33
741.745	38
742.299	32
742.852	36
743.405	31
743.959	27
744.512	27
745.065	29
745.618	30
746.171	32
746.724	32
747.277	27
747.83	28
748.382	30
748.935	24
749.488	27
750.04	25
750.593	32
751.145	29
751.698	22
752.25	29
752.802	23
753.354	22
753.906	24
754.458	23
755.01	25
755.562	24
756.114	20
756.666	24
757.218	24
757.769	20
758.321	14
758.873	29
759.424	19
759.975	21
760.527	23
761.078	17
761.629	18
762.181	20
762.732	15
763.283	23
763.834	17
764.385	17
764.935	18
765.486	23
766.037	20
766.588	23
767.138	17
767.689	19
768.239	15
768.79	13
769.34	15
769.89	18
770.44	18
770.991	17
771.541	19
772.091	18
772.641	15
773.191	15
773.74	18
774.29	16
774.84	12
775.39	15
775.939	17
776.489	9
777.038	17
777.588	18
778.137	17
778.686	16
779.235	13
779.784	14
780.334	14
780.883	14
781.431	17
781.98	14
782.529	13
783.078	11
783.627	16
784.175	15
784.724	12
785.272	13
785.821	17
786.369	17
786.917	14
787.466	15
788.014	15
788.562	13
789.11	15
789.658	12
790.206	13
790.754	8
791.302	10
791.849	9
792.397	16
792.945	13
793.492	11
794.04	11
794.587	11
795.134	12
795.682	11
796.229	8
796.776	10
797.323	11
797.87	6
798.417	14
798.964	13
799.511	9
800.058	7
800.604	6
801.151	5
801.698	11
802.244	12
802.791	11
803.337	7
803.883	9
804.43	7
804.976	10
805.522	9
806.068	3
806.614	11
807.16	7
807.706	12
808.252	8
808.797	7
809.343	3
809.889	8
810.434	5
810.98	7
811.525	10
812.071	7
812.616	4
813.161	4
813.706	12
814.252	4
814.797	4
815.342	12
815.886	8
816.431	8
816.976	5
817.521	2
818.066	8
818.61	4
819.155	4
819.699	7
820.244	3
820.788	5
821.332	1
821.876	1
822.421	8
822.965	4
823.509	7
824.053	11
824.597	5
825.14	6
825.684	2
826.228	3
826.771	8
827.315	8
827.859	3
828.402	4
828.945	3
829.489	6
830.032	4
830.575	5
831.118	5
831.661	0
832.204	2
832.747	3
833.29	6
833.833	2
834.376	6
834.918	4
835.461	3
836.004	0
836.546	5
837.088	2
837.631	3
838.173	3
838.715	4
839.257	3
839.8	1
840.342	3
840.884	7
841.425	6
841.967	3
842.509	3
843.051	7
843.592	3
844.134	4
844.676	4
845.217	9
845.758	4
846.3	5
846.841	2
847.382	3
847.923	3
848.464	3
849.005	4
849.546	5
850.087	1
850.628	2
851.169	3
851.709	1
852.25	5
852.791	0
853.331	2
853.871	1
854.412	3
854.952	1
855.492	0
856.033	1
856.573	3
857.113	2
857.653	2
858.193	1
858.732	0
859.272	3
859.812	-1
860.352	0
860.891	4
861.431	2
861.97	7
862.509	5
863.049	3
863.588	-3
864.127	1
864.666	1
865.205	3
865.744	-3
866.283	3
866.822	1
867.361	2
867.9	5
868.438	3
868.977	2
869.516	3
870.054	7
870.593	1
871.131	4
871.669	2
872.207	0
872.746	4
873.284	1
873.822	0
874.36	5
874.898	5
875.435	3
875.973	0
876.511	3
877.048	-4
877.586	3
878.124	1
878.661	3
879.198	6
879.736	3
880.273	3
880.81	3
881.347	1
881.884	2
882.421	1
882.958	3
883.495	1
884.032	1
884.569	1
885.105	1
885.642	2
886.178	2
886.715	2
887.251	4
887.788	2
888.324	1
888.86	1
889.396	-1
889.932	0
890.468	0
891.004	1
891.54	3
892.076	4
892.612	0
893.147	0
893.683	2
894.219	2
894.754	0
895.29	2
895.825	1
896.36	2
896.896	4
897.431	-1
897.966	0
898.501	1
899.036	0
899.571	-1
900.106	-1
900.64	2
901.175	-1
901.71	4
902.244	0
902.779	1
903.313	-1
903.848	0
904.382	-1
904.916	-1
905.45	5
905.985	0
906.519	6
907.053	2
907.587	-1
908.12	-1
908.654	2
909.188	-2
909.722	2
910.255	2
910.789	0
911.322	2
911.856	1
912.389	1
912.922	-1
913.456	3
913.989	4
914.522	3
915.055	0
915.588	1
916.121	0
916.653	3
917.186	0
917.719	0
918.252	2
918.784	1
919.317	2
919.849	1
920.381	2
920.914	-1
921.446	2
921.978	4
922.51	3
923.042	1
923.574	2
924.106	3
924.638	5
925.17	2
925.701	-1
926.233	4
926.765	2
927.296	-2
927.828	2
928.359	0
928.89	0
929.422	1
929.953	3
930.484	3
931.015	0
931.546	-1
932.077	-4
932.608	1
933.138	-1
933.669	-1
934.2	0
934.73	-3
935.261	0
