Data from LOOPyPMA-1_QEP046991__42__18-11-51-758.txt Node

Date: Sun May 11 18:11:51 CEST 2025
User: superuser
Spectrometer: QEP04699
Trigger mode: 4
Integration Time (sec): 1.000000E-1
Scans to average: 1
Electric dark correction enabled: true
Nonlinearity correction enabled: false
Boxcar width: 0
XAxis mode: Wavelengths
Number of Pixels in Spectrum: 1044
>>>>>Begin Spectral Data<<<<<
347.57	6.88
348.165	3.88
348.76	-1.12
349.355	-1.12
349.95	-2.12
350.545	-0.12
351.14	-2.12
351.735	0.88
352.33	0.88
352.924	2.88
353.519	-3.12
354.114	3.88
354.708	1.88
355.303	-0.12
355.897	-1.12
356.491	-4.12
357.086	-2.12
357.68	-3.12
358.274	-1.12
358.868	-7.12
359.462	-4.12
360.056	1.88
360.65	-0.12
361.244	-3.12
361.838	2.88
362.431	1.88
363.025	0.88
363.619	-2.12
364.212	2.88
364.806	-3.12
365.399	-2.12
365.993	0.88
366.586	-5.12
367.179	-2.12
367.772	-2.12
368.366	1.88
368.959	0.88
369.552	-2.12
370.145	0.88
370.738	-0.12
371.331	1.88
371.923	-1.12
372.516	0.88
373.109	0.88
373.701	-2.12
374.294	-2.12
374.887	-1.12
375.479	-1.12
376.071	1.88
376.664	-2.12
377.256	-3.12
377.848	-2.12
378.44	-0.12
379.033	-0.12
379.625	-2.12
380.217	0.88
380.808	0.88
381.4	-2.12
381.992	2.88
382.584	-4.12
383.176	0.88
383.767	1.88
384.359	4.88
384.95	0.88
385.542	0.88
386.133	0.88
386.725	0.88
387.316	0.88
387.907	1.88
388.498	2.88
389.089	-2.12
389.68	-0.12
390.271	3.88
390.862	1.88
391.453	0.88
392.044	-3.12
392.635	-2.12
393.225	4.88
393.816	-2.12
394.407	2.88
394.997	-0.12
395.588	-0.12
396.178	-1.12
396.768	-2.12
397.359	1.88
397.949	-2.12
398.539	-1.12
399.129	0.88
399.719	2.88
400.309	4.88
400.899	1.88
401.489	0.88
402.079	2.88
402.668	1.88
403.258	-3.12
403.848	3.88
404.437	4.88
405.027	3.88
405.616	1.88
406.206	0.88
406.795	4.88
407.384	0.88
407.973	4.88
408.563	-0.12
409.152	3.88
409.741	-0.12
410.33	-0.12
410.919	1.88
411.508	2.88
412.096	3.88
412.685	5.88
413.274	9.88
413.862	3.88
414.451	8.88
415.039	3.88
415.628	9.88
416.216	4.88
416.805	12.88
417.393	10.88
417.981	9.88
418.569	7.88
419.157	8.88
419.745	12.88
420.333	15.88
420.921	12.88
421.509	9.88
422.097	14.88
422.685	13.88
423.272	18.88
423.86	22.88
424.447	20.88
425.035	22.88
425.622	23.88
426.21	28.88
426.797	29.88
427.384	28.88
427.972	31.88
428.559	28.88
429.146	38.88
429.733	43.88
430.32	34.88
430.907	46.88
431.494	46.88
432.08	53.88
432.667	59.88
433.254	63.88
433.84	75.88
434.427	75.88
435.013	78.88
435.6	89.88
436.186	89.88
436.772	96.88
437.359	104.88
437.945	106.88
438.531	129.88
439.117	134.88
439.703	140.88
440.289	157.88
440.875	166.88
441.461	178.88
442.047	197.88
442.632	216.88
443.218	232.88
443.804	247.88
444.389	257.88
444.975	273.88
445.56	317.88
446.145	322.88
446.731	367.88
447.316	380.88
447.901	393.88
448.486	439.88
449.071	463.88
449.656	505.88
450.241	527.88
450.826	570.88
451.411	605.88
451.996	660.88
452.58	701.88
453.165	791.88
453.75	844.88
454.334	899.88
454.919	982.88
455.503	1035.88
456.087	1126.88
456.672	1191.88
457.256	1313.88
457.84	1409.88
458.424	1445.88
459.008	1596.88
459.592	1682.88
460.176	1803.88
460.76	1896.88
461.344	1962.88
461.927	2070.88
462.511	2112.88
463.095	2207.88
463.678	2250.88
464.262	2264.88
464.845	2246.88
465.429	2317.88
466.012	2266.88
466.595	2230.88
467.178	2163.88
467.762	2109.88
468.345	2032.88
468.928	1957.88
469.511	1849.88
470.094	1744.88
470.676	1632.88
471.259	1568.88
471.842	1465.88
472.425	1373.88
473.007	1278.88
473.59	1157.88
474.172	1103.88
474.755	1020.88
475.337	948.88
475.919	901.88
476.502	853.88
477.084	806.88
477.666	764.88
478.248	729.88
478.83	680.88
479.412	669.88
479.994	605.88
480.576	585.88
481.157	543.88
481.739	538.88
482.321	507.88
482.902	490.88
483.484	455.88
484.065	436.88
484.647	398.88
485.228	379.88
485.809	361.88
486.391	334.88
486.972	319.88
487.553	294.88
488.134	277.88
488.715	261.88
489.296	235.88
489.877	232.88
490.458	213.88
491.038	207.88
491.619	179.88
492.2	181.88
492.78	172.88
493.361	159.88
493.941	149.88
494.522	142.88
495.102	135.88
495.682	133.88
496.262	118.88
496.843	121.88
497.423	121.88
498.003	109.88
498.583	110.88
499.163	109.88
499.742	101.88
500.322	106.88
500.902	99.88
501.482	97.88
502.061	90.88
502.641	95.88
503.22	85.88
503.8	90.88
504.379	83.88
504.958	86.88
505.538	76.88
506.117	75.88
506.696	80.88
507.275	74.88
507.854	83.88
508.433	78.88
509.012	76.88
509.591	79.88
510.169	78.88
510.748	80.88
511.327	79.88
511.905	84.88
512.484	77.88
513.062	89.88
513.641	93.88
514.219	101.88
514.797	106.88
515.375	110.88
515.954	110.88
516.532	115.88
517.11	126.88
517.688	133.88
518.266	138.88
518.843	156.88
519.421	152.88
519.999	159.88
520.577	173.88
521.154	183.88
521.732	182.88
522.309	205.88
522.887	205.88
523.464	205.88
524.041	210.88
524.619	234.88
525.196	243.88
525.773	250.88
526.35	251.88
526.927	251.88
527.504	259.88
528.081	271.88
528.658	268.88
529.235	283.88
529.811	285.88
530.388	285.88
530.964	292.88
531.541	289.88
532.117	285.88
532.694	292.88
533.27	290.88
533.846	278.88
534.423	295.88
534.999	277.88
535.575	281.88
536.151	288.88
536.727	282.88
537.303	273.88
537.879	289.88
538.455	270.88
539.03	278.88
539.606	279.88
540.182	266.88
540.757	263.88
541.333	265.88
541.908	265.88
542.483	259.88
543.059	259.88
543.634	271.88
544.209	257.88
544.784	254.88
545.359	249.88
545.934	244.88
546.509	252.88
547.084	240.88
547.659	238.88
548.234	240.88
548.808	222.88
549.383	233.88
549.958	221.88
550.532	234.88
551.107	231.88
551.681	230.88
552.255	228.88
552.83	221.88
553.404	220.88
553.978	219.88
554.552	228.88
555.126	229.88
555.7	229.88
556.274	224.88
556.848	238.88
557.422	228.88
557.995	226.88
558.569	233.88
559.143	242.88
559.716	241.88
560.29	238.88
560.863	242.88
561.437	235.88
562.01	259.88
562.583	261.88
563.156	231.88
563.729	257.88
564.302	264.88
564.875	265.88
565.448	269.88
566.021	278.88
566.594	279.88
567.167	281.88
567.74	280.88
568.312	270.88
568.885	283.88
569.457	287.88
570.03	292.88
570.602	291.88
571.174	283.88
571.747	296.88
572.319	292.88
572.891	289.88
573.463	299.88
574.035	287.88
574.607	297.88
575.179	286.88
575.751	293.88
576.323	298.88
576.894	287.88
577.466	280.88
578.038	283.88
578.609	299.88
579.181	291.88
579.752	295.88
580.323	292.88
580.895	297.88
581.466	282.88
582.037	282.88
582.608	294.88
583.179	297.88
583.75	279.88
584.321	303.88
584.892	304.88
585.463	301.88
586.033	305.88
586.604	286.88
587.175	291.88
587.745	314.88
588.316	307.88
588.886	304.88
589.457	298.88
590.027	310.88
590.597	291.88
591.167	290.88
591.737	299.88
592.308	292.88
592.878	294.88
593.447	295.88
594.017	288.88
594.587	306.88
595.157	299.88
595.727	293.88
596.296	285.88
596.866	276.88
597.435	289.88
598.005	284.88
598.574	276.88
599.143	285.88
599.713	278.88
600.282	285.88
600.851	280.88
601.42	260.88
601.989	269.88
602.558	268.88
603.127	268.88
603.696	264.88
604.265	263.88
604.833	259.88
605.402	267.88
605.971	258.88
606.539	260.88
607.108	264.88
607.676	261.88
608.244	256.88
608.813	256.88
609.381	262.88
609.949	254.88
610.517	258.88
611.085	266.88
611.653	259.88
612.221	262.88
612.789	263.88
613.357	257.88
613.924	246.88
614.492	255.88
615.06	266.88
615.627	241.88
616.195	248.88
616.762	250.88
617.329	253.88
617.897	250.88
618.464	248.88
619.031	236.88
619.598	245.88
620.165	257.88
620.732	253.88
621.299	252.88
621.866	249.88
622.433	241.88
623	245.88
623.566	243.88
624.133	242.88
624.7	247.88
625.266	235.88
625.832	238.88
626.399	231.88
626.965	238.88
627.531	240.88
628.098	234.88
628.664	229.88
629.23	225.88
629.796	224.88
630.362	228.88
630.928	218.88
631.493	225.88
632.059	227.88
632.625	230.88
633.19	219.88
633.756	221.88
634.322	215.88
634.887	220.88
635.452	230.88
636.018	204.88
636.583	216.88
637.148	207.88
637.713	211.88
638.278	212.88
638.843	202.88
639.408	213.88
639.973	205.88
640.538	202.88
641.103	199.88
641.667	199.88
642.232	193.88
642.797	200.88
643.361	204.88
643.926	192.88
644.49	196.88
645.054	191.88
645.619	196.88
646.183	198.88
646.747	178.88
647.311	184.88
647.875	180.88
648.439	174.88
649.003	180.88
649.567	173.88
650.131	178.88
650.694	184.88
651.258	180.88
651.822	175.88
652.385	166.88
652.949	173.88
653.512	163.88
654.075	161.88
654.639	165.88
655.202	159.88
655.765	153.88
656.328	162.88
656.891	161.88
657.454	157.88
658.017	158.88
658.58	155.88
659.143	155.88
659.705	141.88
660.268	147.88
660.83	151.88
661.393	151.88
661.955	147.88
662.518	143.88
663.08	139.88
663.643	140.88
664.205	148.88
664.767	144.88
665.329	151.88
665.891	144.88
666.453	140.88
667.015	144.88
667.577	134.88
668.139	121.88
668.7	142.88
669.262	134.88
669.824	122.88
670.385	133.88
670.947	119.88
671.508	122.88
672.069	130.88
672.631	125.88
673.192	117.88
673.753	128.88
674.314	117.88
674.875	119.88
675.436	111.88
675.997	109.88
676.558	118.88
677.119	116.88
677.679	108.88
678.24	111.88
678.801	119.88
679.361	112.88
679.922	109.88
680.482	107.88
681.042	110.88
681.603	106.88
682.163	112.88
682.723	103.88
683.283	102.88
683.843	116.88
684.403	113.88
684.963	105.88
685.523	101.88
686.083	101.88
686.642	100.88
687.202	95.88
687.762	97.88
688.321	96.88
688.881	98.88
689.44	90.88
690	97.88
690.559	95.88
691.118	99.88
691.677	86.88
692.236	89.88
692.795	93.88
693.354	87.88
693.913	87.88
694.472	85.88
695.031	78.88
695.59	86.88
696.148	93.88
696.707	75.88
697.265	83.88
697.824	74.88
698.382	76.88
698.941	75.88
699.499	75.88
700.057	74.88
700.615	71.88
701.173	72.88
701.731	70.88
702.289	68.88
702.847	66.88
703.405	60.88
703.963	77.88
704.521	62.88
705.078	63.88
705.636	57.88
706.194	66.88
706.751	63.88
707.308	62.88
707.866	61.88
708.423	66.88
708.98	61.88
709.537	60.88
710.095	60.88
710.652	56.88
711.209	56.88
711.765	53.88
712.322	58.88
712.879	55.88
713.436	51.88
713.992	54.88
714.549	55.88
715.106	54.88
715.662	50.88
716.218	45.88
716.775	46.88
717.331	45.88
717.887	47.88
718.443	46.88
719	48.88
719.556	46.88
720.112	46.88
720.667	43.88
721.223	40.88
721.779	46.88
722.335	41.88
722.89	42.88
723.446	36.88
724.002	41.88
724.557	39.88
725.112	38.88
725.668	37.88
726.223	31.88
726.778	39.88
727.333	39.88
727.888	31.88
728.443	34.88
728.998	33.88
729.553	38.88
730.108	34.88
730.663	34.88
731.218	30.88
731.772	34.88
732.327	38.88
732.881	40.88
733.436	33.88
733.99	33.88
734.545	30.88
735.099	31.88
735.653	36.88
736.207	31.88
736.761	35.88
737.315	32.88
737.869	33.88
738.423	35.88
738.977	30.88
739.531	28.88
740.084	30.88
740.638	26.88
741.192	27.88
741.745	26.88
742.299	28.88
742.852	31.88
743.405	23.88
743.959	22.88
744.512	22.88
745.065	24.88
745.618	25.88
746.171	30.88
746.724	26.88
747.277	23.88
747.83	26.88
748.382	25.88
748.935	25.88
749.488	21.88
750.04	25.88
750.593	25.88
751.145	17.88
751.698	20.88
752.25	23.88
752.802	17.88
753.354	29.88
753.906	20.88
754.458	23.88
755.01	19.88
755.562	26.88
756.114	21.88
756.666	17.88
757.218	19.88
757.769	20.88
758.321	19.88
758.873	22.88
759.424	17.88
759.975	19.88
760.527	18.88
761.078	14.88
761.629	15.88
762.181	17.88
762.732	21.88
763.283	19.88
763.834	14.88
764.385	17.88
764.935	16.88
765.486	14.88
766.037	16.88
766.588	12.88
767.138	15.88
767.689	18.88
768.239	14.88
768.79	14.88
769.34	13.88
769.89	12.88
770.44	13.88
770.991	18.88
771.541	16.88
772.091	13.88
772.641	12.88
773.191	10.88
773.74	12.88
774.29	13.88
774.84	12.88
775.39	15.88
775.939	14.88
776.489	10.88
777.038	11.88
777.588	11.88
778.137	15.88
778.686	13.88
779.235	13.88
779.784	12.88
780.334	10.88
780.883	14.88
781.431	11.88
781.98	11.88
782.529	13.88
783.078	12.88
783.627	10.88
784.175	10.88
784.724	11.88
785.272	12.88
785.821	13.88
786.369	6.88
786.917	10.88
787.466	9.88
788.014	11.88
788.562	10.88
789.11	10.88
789.658	9.88
790.206	13.88
790.754	10.88
791.302	8.88
791.849	10.88
792.397	9.88
792.945	9.88
793.492	9.88
794.04	6.88
794.587	4.88
795.134	6.88
795.682	10.88
796.229	8.88
796.776	3.88
797.323	9.88
797.87	5.88
798.417	7.88
798.964	3.88
799.511	12.88
800.058	6.88
800.604	10.88
801.151	6.88
801.698	6.88
802.244	5.88
802.791	8.88
803.337	12.88
803.883	6.88
804.43	5.88
804.976	4.88
805.522	5.88
806.068	3.88
806.614	8.88
807.16	8.88
807.706	7.88
808.252	7.88
808.797	3.88
809.343	8.88
809.889	5.88
810.434	1.88
810.98	3.88
811.525	6.88
812.071	6.88
812.616	3.88
813.161	2.88
813.706	3.88
814.252	4.88
814.797	5.88
815.342	4.88
815.886	1.88
816.431	5.88
816.976	4.88
817.521	2.88
818.066	2.88
818.61	5.88
819.155	3.88
819.699	2.88
820.244	0.88
820.788	5.88
821.332	1.88
821.876	0.88
822.421	0.88
822.965	3.88
823.509	5.88
824.053	1.88
824.597	6.88
825.14	4.88
825.684	4.88
826.228	0.88
826.771	4.88
827.315	0.88
827.859	-3.12
828.402	3.88
828.945	1.88
829.489	4.88
830.032	0.88
830.575	3.88
831.118	-0.12
831.661	1.88
832.204	3.88
832.747	0.88
833.29	5.88
833.833	1.88
834.376	2.88
834.918	6.88
835.461	4.88
836.004	2.88
836.546	-1.12
837.088	4.88
837.631	-1.12
838.173	1.88
838.715	-0.12
839.257	1.88
839.8	2.88
840.342	3.88
840.884	4.88
841.425	-1.12
841.967	-0.12
842.509	0.88
843.051	-0.12
843.592	3.88
844.134	0.88
844.676	5.88
845.217	2.88
845.758	2.88
846.3	-0.12
846.841	0.88
847.382	1.88
847.923	-0.12
848.464	-0.12
849.005	2.88
849.546	0.88
850.087	1.88
850.628	4.88
851.169	0.88
851.709	-1.12
852.25	-0.12
852.791	0.88
853.331	1.88
853.871	-0.12
854.412	-2.12
854.952	0.88
855.492	-0.12
856.033	0.88
856.573	-1.12
857.113	-0.12
857.653	-0.12
858.193	0.88
858.732	1.88
859.272	-1.12
859.812	0.88
860.352	1.88
860.891	-0.12
861.431	2.88
861.97	-0.12
862.509	0.88
863.049	-1.12
863.588	0.88
864.127	-1.12
864.666	0.88
865.205	-2.12
865.744	0.88
866.283	-1.12
866.822	3.88
867.361	-2.12
867.9	4.88
868.438	-2.12
868.977	-2.12
869.516	-0.12
870.054	1.88
870.593	-2.12
871.131	0.88
871.669	-2.12
872.207	-0.12
872.746	-2.12
873.284	-1.12
873.822	2.88
874.36	1.88
874.898	-0.12
875.435	-0.12
875.973	0.88
876.511	-0.12
877.048	-1.12
877.586	2.88
878.124	-1.12
878.661	-3.12
879.198	-0.12
879.736	-0.12
880.273	-0.12
880.81	-1.12
881.347	-1.12
881.884	0.88
882.421	0.88
882.958	-2.12
883.495	-0.12
884.032	0.88
884.569	-2.12
885.105	4.88
885.642	-3.12
886.178	-0.12
886.715	-1.12
887.251	0.88
887.788	3.88
888.324	0.88
888.86	-0.12
889.396	0.88
889.932	0.88
890.468	-0.12
891.004	1.88
891.54	-0.12
892.076	-1.12
892.612	-2.12
893.147	-0.12
893.683	-0.12
894.219	-1.12
894.754	2.88
895.29	-2.12
895.825	-0.12
896.36	-3.12
896.896	-4.12
897.431	2.88
897.966	2.88
898.501	-2.12
899.036	-1.12
899.571	1.88
900.106	-0.12
900.64	-0.12
901.175	-0.12
901.71	-1.12
902.244	-2.12
902.779	0.88
903.313	0.88
903.848	1.88
904.382	-3.12
904.916	2.88
905.45	-0.12
905.985	-2.12
906.519	-0.12
907.053	-3.12
907.587	0.88
908.12	-0.12
908.654	-0.12
909.188	1.88
909.722	0.88
910.255	-3.12
910.789	-0.12
911.322	2.88
911.856	-0.12
912.389	-0.12
912.922	-2.12
913.456	3.88
913.989	-0.12
914.522	-0.12
915.055	-1.12
915.588	1.88
916.121	2.88
916.653	-1.12
917.186	-5.12
917.719	0.88
918.252	2.88
918.784	2.88
919.317	-0.12
919.849	-0.12
920.381	-1.12
920.914	-0.12
921.446	4.88
921.978	-3.12
922.51	-2.12
923.042	2.88
923.574	-0.12
924.106	3.88
924.638	-0.12
925.17	0.88
925.701	-3.12
926.233	2.88
926.765	0.88
927.296	-2.12
927.828	2.88
928.359	-1.12
928.89	-2.12
929.422	-2.12
929.953	3.88
930.484	3.88
931.015	0.88
931.546	-2.12
932.077	-0.12
932.608	-0.12
933.138	-5.12
933.669	-0.12
934.2	-4.12
934.73	-2.12
935.261	-2.12
