Data from LOOPyPMA-1_QEP046991__36__18-11-45-757.txt Node

Date: Sun May 11 18:11:45 CEST 2025
User: superuser
Spectrometer: QEP04699
Trigger mode: 4
Integration Time (sec): 1.000000E-1
Scans to average: 1
Electric dark correction enabled: true
Nonlinearity correction enabled: false
Boxcar width: 0
XAxis mode: Wavelengths
Number of Pixels in Spectrum: 1044
>>>>>Begin Spectral Data<<<<<
347.57	10.62
348.165	4.62
348.76	-1.38
349.355	-2.38
349.95	-1.38
350.545	3.62
351.14	-0.38
351.735	-0.38
352.33	0.62
352.924	2.62
353.519	-0.38
354.114	-0.38
354.708	3.62
355.303	-1.38
355.897	3.62
356.491	-0.38
357.086	1.62
357.68	0.62
358.274	-0.38
358.868	2.62
359.462	4.62
360.056	1.62
360.65	-3.38
361.244	5.62
361.838	-1.38
362.431	0.62
363.025	-0.38
363.619	-0.38
364.212	1.62
364.806	1.62
365.399	3.62
365.993	3.62
366.586	0.62
367.179	0.62
367.772	2.62
368.366	2.62
368.959	4.62
369.552	1.62
370.145	2.62
370.738	-0.38
371.331	0.62
371.923	2.62
372.516	1.62
373.109	0.62
373.701	6.62
374.294	4.62
374.887	-0.38
375.479	-0.38
376.071	-0.38
376.664	3.62
377.256	3.62
377.848	1.62
378.44	0.62
379.033	2.62
379.625	3.62
380.217	-1.38
380.808	3.62
381.4	3.62
381.992	2.62
382.584	2.62
383.176	-1.38
383.767	5.62
384.359	4.62
384.95	2.62
385.542	-0.38
386.133	3.62
386.725	-1.38
387.316	1.62
387.907	0.62
388.498	3.62
389.089	2.62
389.68	4.62
390.271	5.62
390.862	0.62
391.453	3.62
392.044	2.62
392.635	4.62
393.225	-0.38
393.816	0.62
394.407	-0.38
394.997	2.62
395.588	0.62
396.178	3.62
396.768	4.62
397.359	3.62
397.949	1.62
398.539	2.62
399.129	2.62
399.719	1.62
400.309	0.62
400.899	6.62
401.489	6.62
402.079	4.62
402.668	4.62
403.258	3.62
403.848	4.62
404.437	1.62
405.027	6.62
405.616	3.62
406.206	6.62
406.795	7.62
407.384	4.62
407.973	4.62
408.563	4.62
409.152	6.62
409.741	3.62
410.33	1.62
410.919	6.62
411.508	8.62
412.096	7.62
412.685	8.62
413.274	4.62
413.862	8.62
414.451	7.62
415.039	9.62
415.628	8.62
416.216	6.62
416.805	5.62
417.393	11.62
417.981	9.62
418.569	8.62
419.157	11.62
419.745	15.62
420.333	18.62
420.921	16.62
421.509	18.62
422.097	18.62
422.685	15.62
423.272	18.62
423.86	20.62
424.447	22.62
425.035	19.62
425.622	27.62
426.21	22.62
426.797	35.62
427.384	31.62
427.972	32.62
428.559	38.62
429.146	36.62
429.733	43.62
430.32	40.62
430.907	44.62
431.494	48.62
432.08	58.62
432.667	57.62
433.254	63.62
433.84	69.62
434.427	76.62
435.013	81.62
435.6	89.62
436.186	90.62
436.772	104.62
437.359	102.62
437.945	118.62
438.531	125.62
439.117	135.62
439.703	148.62
440.289	149.62
440.875	171.62
441.461	190.62
442.047	199.62
442.632	213.62
443.218	228.62
443.804	251.62
444.389	261.62
444.975	288.62
445.56	296.62
446.145	325.62
446.731	364.62
447.316	389.62
447.901	430.62
448.486	444.62
449.071	465.62
449.656	494.62
450.241	530.62
450.826	582.62
451.411	626.62
451.996	660.62
452.58	729.62
453.165	773.62
453.75	836.62
454.334	899.62
454.919	990.62
455.503	1051.62
456.087	1104.62
456.672	1223.62
457.256	1284.62
457.84	1377.62
458.424	1473.62
459.008	1607.62
459.592	1692.62
460.176	1806.62
460.76	1878.62
461.344	1965.62
461.927	2048.62
462.511	2088.62
463.095	2198.62
463.678	2227.62
464.262	2252.62
464.845	2275.62
465.429	2303.62
466.012	2255.62
466.595	2206.62
467.178	2166.62
467.762	2094.62
468.345	2027.62
468.928	1928.62
469.511	1843.62
470.094	1730.62
470.676	1626.62
471.259	1564.62
471.842	1428.62
472.425	1333.62
473.007	1277.62
473.59	1188.62
474.172	1117.62
474.755	1037.62
475.337	950.62
475.919	907.62
476.502	855.62
477.084	793.62
477.666	762.62
478.248	727.62
478.83	684.62
479.412	649.62
479.994	624.62
480.576	561.62
481.157	559.62
481.739	518.62
482.321	493.62
482.902	475.62
483.484	455.62
484.065	430.62
484.647	409.62
485.228	373.62
485.809	368.62
486.391	324.62
486.972	314.62
487.553	289.62
488.134	274.62
488.715	264.62
489.296	237.62
489.877	214.62
490.458	215.62
491.038	186.62
491.619	191.62
492.2	189.62
492.78	171.62
493.361	149.62
493.941	149.62
494.522	143.62
495.102	139.62
495.682	134.62
496.262	123.62
496.843	128.62
497.423	126.62
498.003	115.62
498.583	118.62
499.163	105.62
499.742	102.62
500.322	105.62
500.902	102.62
501.482	104.62
502.061	99.62
502.641	98.62
503.22	90.62
503.8	93.62
504.379	89.62
504.958	85.62
505.538	83.62
506.117	71.62
506.696	81.62
507.275	79.62
507.854	80.62
508.433	86.62
509.012	72.62
509.591	77.62
510.169	82.62
510.748	77.62
511.327	83.62
511.905	83.62
512.484	88.62
513.062	104.62
513.641	101.62
514.219	100.62
514.797	110.62
515.375	122.62
515.954	119.62
516.532	125.62
517.11	129.62
517.688	139.62
518.266	148.62
518.843	150.62
519.421	160.62
519.999	176.62
520.577	185.62
521.154	191.62
521.732	195.62
522.309	203.62
522.887	213.62
523.464	227.62
524.041	234.62
524.619	234.62
525.196	244.62
525.773	253.62
526.35	248.62
526.927	260.62
527.504	271.62
528.081	276.62
528.658	283.62
529.235	291.62
529.811	290.62
530.388	287.62
530.964	293.62
531.541	287.62
532.117	286.62
532.694	286.62
533.27	298.62
533.846	302.62
534.423	296.62
534.999	295.62
535.575	295.62
536.151	291.62
536.727	299.62
537.303	284.62
537.879	290.62
538.455	287.62
539.03	279.62
539.606	284.62
540.182	275.62
540.757	284.62
541.333	276.62
541.908	277.62
542.483	268.62
543.059	276.62
543.634	275.62
544.209	258.62
544.784	255.62
545.359	256.62
545.934	255.62
546.509	249.62
547.084	247.62
547.659	246.62
548.234	251.62
548.808	249.62
549.383	241.62
549.958	250.62
550.532	243.62
551.107	243.62
551.681	229.62
552.255	230.62
552.83	235.62
553.404	235.62
553.978	233.62
554.552	228.62
555.126	232.62
555.7	220.62
556.274	240.62
556.848	231.62
557.422	233.62
557.995	243.62
558.569	229.62
559.143	239.62
559.716	247.62
560.29	258.62
560.863	245.62
561.437	257.62
562.01	254.62
562.583	260.62
563.156	253.62
563.729	256.62
564.302	269.62
564.875	279.62
565.448	278.62
566.021	275.62
566.594	283.62
567.167	278.62
567.74	294.62
568.312	292.62
568.885	286.62
569.457	293.62
570.03	302.62
570.602	305.62
571.174	305.62
571.747	305.62
572.319	313.62
572.891	309.62
573.463	300.62
574.035	296.62
574.607	305.62
575.179	302.62
575.751	301.62
576.323	311.62
576.894	287.62
577.466	298.62
578.038	292.62
578.609	303.62
579.181	298.62
579.752	291.62
580.323	289.62
580.895	290.62
581.466	292.62
582.037	290.62
582.608	302.62
583.179	297.62
583.75	310.62
584.321	311.62
584.892	303.62
585.463	314.62
586.033	302.62
586.604	323.62
587.175	309.62
587.745	315.62
588.316	309.62
588.886	320.62
589.457	319.62
590.027	317.62
590.597	310.62
591.167	317.62
591.737	311.62
592.308	332.62
592.878	299.62
593.447	304.62
594.017	317.62
594.587	300.62
595.157	301.62
595.727	299.62
596.296	294.62
596.866	286.62
597.435	290.62
598.005	291.62
598.574	284.62
599.143	280.62
599.713	292.62
600.282	280.62
600.851	282.62
601.42	286.62
601.989	280.62
602.558	288.62
603.127	282.62
603.696	281.62
604.265	279.62
604.833	284.62
605.402	283.62
605.971	268.62
606.539	273.62
607.108	266.62
607.676	268.62
608.244	273.62
608.813	266.62
609.381	280.62
609.949	268.62
610.517	264.62
611.085	268.62
611.653	272.62
612.221	259.62
612.789	264.62
613.357	266.62
613.924	259.62
614.492	262.62
615.06	263.62
615.627	264.62
616.195	262.62
616.762	259.62
617.329	262.62
617.897	262.62
618.464	266.62
619.031	251.62
619.598	257.62
620.165	245.62
620.732	266.62
621.299	258.62
621.866	257.62
622.433	251.62
623	259.62
623.566	259.62
624.133	257.62
624.7	258.62
625.266	256.62
625.832	243.62
626.399	249.62
626.965	242.62
627.531	260.62
628.098	251.62
628.664	247.62
629.23	241.62
629.796	234.62
630.362	238.62
630.928	246.62
631.493	239.62
632.059	227.62
632.625	230.62
633.19	238.62
633.756	239.62
634.322	222.62
634.887	231.62
635.452	230.62
636.018	217.62
636.583	218.62
637.148	218.62
637.713	230.62
638.278	211.62
638.843	220.62
639.408	224.62
639.973	208.62
640.538	223.62
641.103	205.62
641.667	213.62
642.232	211.62
642.797	214.62
643.361	206.62
643.926	206.62
644.49	191.62
645.054	205.62
645.619	199.62
646.183	199.62
646.747	193.62
647.311	195.62
647.875	186.62
648.439	194.62
649.003	184.62
649.567	178.62
650.131	186.62
650.694	175.62
651.258	185.62
651.822	174.62
652.385	173.62
652.949	175.62
653.512	181.62
654.075	173.62
654.639	170.62
655.202	170.62
655.765	165.62
656.328	166.62
656.891	168.62
657.454	165.62
658.017	155.62
658.58	162.62
659.143	166.62
659.705	156.62
660.268	167.62
660.83	154.62
661.393	154.62
661.955	149.62
662.518	151.62
663.08	144.62
663.643	150.62
664.205	139.62
664.767	151.62
665.329	149.62
665.891	148.62
666.453	138.62
667.015	141.62
667.577	144.62
668.139	138.62
668.7	142.62
669.262	135.62
669.824	124.62
670.385	136.62
670.947	135.62
671.508	120.62
672.069	134.62
672.631	125.62
673.192	126.62
673.753	127.62
674.314	123.62
674.875	118.62
675.436	121.62
675.997	117.62
676.558	127.62
677.119	115.62
677.679	122.62
678.24	115.62
678.801	118.62
679.361	117.62
679.922	114.62
680.482	115.62
681.042	110.62
681.603	116.62
682.163	113.62
682.723	114.62
683.283	111.62
683.843	111.62
684.403	110.62
684.963	110.62
685.523	101.62
686.083	107.62
686.642	107.62
687.202	108.62
687.762	102.62
688.321	103.62
688.881	104.62
689.44	98.62
690	98.62
690.559	102.62
691.118	94.62
691.677	97.62
692.236	89.62
692.795	89.62
693.354	89.62
693.913	87.62
694.472	91.62
695.031	90.62
695.59	87.62
696.148	79.62
696.707	85.62
697.265	85.62
697.824	83.62
698.382	87.62
698.941	75.62
699.499	80.62
700.057	81.62
700.615	78.62
701.173	75.62
701.731	74.62
702.289	72.62
702.847	72.62
703.405	72.62
703.963	63.62
704.521	79.62
705.078	74.62
705.636	67.62
706.194	67.62
706.751	68.62
707.308	62.62
707.866	57.62
708.423	66.62
708.98	62.62
709.537	61.62
710.095	59.62
710.652	54.62
711.209	55.62
711.765	59.62
712.322	60.62
712.879	61.62
713.436	54.62
713.992	62.62
714.549	60.62
715.106	61.62
715.662	55.62
716.218	56.62
716.775	53.62
717.331	58.62
717.887	52.62
718.443	51.62
719	48.62
719.556	45.62
720.112	48.62
720.667	44.62
721.223	49.62
721.779	38.62
722.335	44.62
722.89	40.62
723.446	44.62
724.002	39.62
724.557	47.62
725.112	44.62
725.668	41.62
726.223	44.62
726.778	43.62
727.333	40.62
727.888	39.62
728.443	35.62
728.998	37.62
729.553	44.62
730.108	41.62
730.663	41.62
731.218	36.62
731.772	38.62
732.327	39.62
732.881	37.62
733.436	38.62
733.99	39.62
734.545	38.62
735.099	36.62
735.653	42.62
736.207	33.62
736.761	33.62
737.315	28.62
737.869	30.62
738.423	33.62
738.977	30.62
739.531	30.62
740.084	35.62
740.638	28.62
741.192	29.62
741.745	33.62
742.299	32.62
742.852	27.62
743.405	26.62
743.959	30.62
744.512	25.62
745.065	29.62
745.618	30.62
746.171	25.62
746.724	23.62
747.277	27.62
747.83	24.62
748.382	24.62
748.935	26.62
749.488	23.62
750.04	24.62
750.593	22.62
751.145	29.62
751.698	21.62
752.25	21.62
752.802	22.62
753.354	25.62
753.906	24.62
754.458	22.62
755.01	22.62
755.562	23.62
756.114	24.62
756.666	23.62
757.218	23.62
757.769	21.62
758.321	20.62
758.873	20.62
759.424	20.62
759.975	20.62
760.527	16.62
761.078	17.62
761.629	21.62
762.181	20.62
762.732	20.62
763.283	16.62
763.834	19.62
764.385	16.62
764.935	22.62
765.486	19.62
766.037	13.62
766.588	18.62
767.138	15.62
767.689	15.62
768.239	20.62
768.79	14.62
769.34	16.62
769.89	17.62
770.44	13.62
770.991	13.62
771.541	18.62
772.091	15.62
772.641	18.62
773.191	15.62
773.74	15.62
774.29	12.62
774.84	11.62
775.39	15.62
775.939	13.62
776.489	17.62
777.038	16.62
777.588	14.62
778.137	15.62
778.686	14.62
779.235	11.62
779.784	13.62
780.334	18.62
780.883	10.62
781.431	15.62
781.98	12.62
782.529	14.62
783.078	12.62
783.627	12.62
784.175	15.62
784.724	11.62
785.272	11.62
785.821	13.62
786.369	13.62
786.917	13.62
787.466	11.62
788.014	12.62
788.562	12.62
789.11	8.62
789.658	17.62
790.206	13.62
790.754	14.62
791.302	12.62
791.849	12.62
792.397	12.62
792.945	11.62
793.492	7.62
794.04	12.62
794.587	11.62
795.134	12.62
795.682	8.62
796.229	10.62
796.776	9.62
797.323	11.62
797.87	9.62
798.417	9.62
798.964	6.62
799.511	9.62
800.058	10.62
800.604	4.62
801.151	5.62
801.698	11.62
802.244	7.62
802.791	7.62
803.337	10.62
803.883	11.62
804.43	6.62
804.976	7.62
805.522	7.62
806.068	12.62
806.614	5.62
807.16	8.62
807.706	10.62
808.252	6.62
808.797	4.62
809.343	10.62
809.889	5.62
810.434	3.62
810.98	7.62
811.525	4.62
812.071	3.62
812.616	6.62
813.161	7.62
813.706	6.62
814.252	6.62
814.797	7.62
815.342	6.62
815.886	3.62
816.431	7.62
816.976	6.62
817.521	4.62
818.066	7.62
818.61	1.62
819.155	3.62
819.699	4.62
820.244	5.62
820.788	7.62
821.332	3.62
821.876	6.62
822.421	9.62
822.965	4.62
823.509	5.62
824.053	3.62
824.597	5.62
825.14	9.62
825.684	4.62
826.228	9.62
826.771	5.62
827.315	4.62
827.859	3.62
828.402	5.62
828.945	6.62
829.489	4.62
830.032	1.62
830.575	9.62
831.118	4.62
831.661	5.62
832.204	3.62
832.747	1.62
833.29	5.62
833.833	-1.38
834.376	1.62
834.918	6.62
835.461	6.62
836.004	3.62
836.546	2.62
837.088	6.62
837.631	3.62
838.173	0.62
838.715	3.62
839.257	4.62
839.8	1.62
840.342	6.62
840.884	-0.38
841.425	3.62
841.967	5.62
842.509	3.62
843.051	2.62
843.592	4.62
844.134	5.62
844.676	2.62
845.217	2.62
845.758	1.62
846.3	5.62
846.841	1.62
847.382	1.62
847.923	1.62
848.464	1.62
849.005	1.62
849.546	1.62
850.087	5.62
850.628	4.62
851.169	3.62
851.709	3.62
852.25	3.62
852.791	2.62
853.331	0.62
853.871	0.62
854.412	2.62
854.952	0.62
855.492	1.62
856.033	3.62
856.573	5.62
857.113	2.62
857.653	3.62
858.193	5.62
858.732	-0.38
859.272	2.62
859.812	1.62
860.352	2.62
860.891	3.62
861.431	4.62
861.97	-1.38
862.509	3.62
863.049	3.62
863.588	0.62
864.127	3.62
864.666	3.62
865.205	-0.38
865.744	2.62
866.283	0.62
866.822	0.62
867.361	0.62
867.9	5.62
868.438	0.62
868.977	3.62
869.516	0.62
870.054	6.62
870.593	2.62
871.131	1.62
871.669	6.62
872.207	2.62
872.746	5.62
873.284	2.62
873.822	1.62
874.36	0.62
874.898	2.62
875.435	0.62
875.973	3.62
876.511	3.62
877.048	0.62
877.586	4.62
878.124	1.62
878.661	0.62
879.198	4.62
879.736	2.62
880.273	6.62
880.81	1.62
881.347	-1.38
881.884	4.62
882.421	3.62
882.958	2.62
883.495	-0.38
884.032	5.62
884.569	0.62
885.105	0.62
885.642	0.62
886.178	1.62
886.715	3.62
887.251	3.62
887.788	1.62
888.324	1.62
888.86	1.62
889.396	4.62
889.932	1.62
890.468	2.62
891.004	0.62
891.54	1.62
892.076	2.62
892.612	1.62
893.147	-1.38
893.683	3.62
894.219	0.62
894.754	1.62
895.29	3.62
895.825	3.62
896.36	-2.38
896.896	2.62
897.431	2.62
897.966	3.62
898.501	4.62
899.036	3.62
899.571	1.62
900.106	4.62
900.64	1.62
901.175	4.62
901.71	-0.38
902.244	2.62
902.779	2.62
903.313	1.62
903.848	-1.38
904.382	0.62
904.916	1.62
905.45	-1.38
905.985	1.62
906.519	3.62
907.053	2.62
907.587	1.62
908.12	2.62
908.654	2.62
909.188	2.62
909.722	4.62
910.255	1.62
910.789	-2.38
911.322	0.62
911.856	3.62
912.389	0.62
912.922	0.62
913.456	4.62
913.989	4.62
914.522	-0.38
915.055	2.62
915.588	1.62
916.121	2.62
916.653	0.62
917.186	4.62
917.719	3.62
918.252	4.62
918.784	-0.38
919.317	1.62
919.849	1.62
920.381	7.62
920.914	1.62
921.446	1.62
921.978	1.62
922.51	1.62
923.042	3.62
923.574	3.62
924.106	1.62
924.638	0.62
925.17	2.62
925.701	3.62
926.233	1.62
926.765	2.62
927.296	1.62
927.828	1.62
928.359	1.62
928.89	3.62
929.422	1.62
929.953	0.62
930.484	-0.38
931.015	1.62
931.546	2.62
932.077	-0.38
932.608	0.62
933.138	-1.38
933.669	-4.38
934.2	-3.38
934.73	-2.38
935.261	-1.38
