Data from LOOPyPMA-1_QEP046991__26__18-11-35-758.txt Node

Date: Sun May 11 18:11:35 CEST 2025
User: superuser
Spectrometer: QEP04699
Trigger mode: 4
Integration Time (sec): 1.000000E-1
Scans to average: 1
Electric dark correction enabled: true
Nonlinearity correction enabled: false
Boxcar width: 0
XAxis mode: Wavelengths
Number of Pixels in Spectrum: 1044
>>>>>Begin Spectral Data<<<<<
347.57	12.25
348.165	1.25
348.76	0.25
349.355	-3.75
349.95	-2.75
350.545	-1.75
351.14	-2.75
351.735	0.25
352.33	-1.75
352.924	2.25
353.519	0.25
354.114	0.25
354.708	-4.75
355.303	-4.75
355.897	-0.75
356.491	-1.75
357.086	4.25
357.68	1.25
358.274	-4.75
358.868	-3.75
359.462	0.25
360.056	0.25
360.65	0.25
361.244	-0.75
361.838	3.25
362.431	0.25
363.025	0.25
363.619	0.25
364.212	1.25
364.806	-0.75
365.399	-4.75
365.993	-0.75
366.586	-5.75
367.179	-2.75
367.772	0.25
368.366	0.25
368.959	3.25
369.552	0.25
370.145	-3.75
370.738	-0.75
371.331	-3.75
371.923	-1.75
372.516	-1.75
373.109	-2.75
373.701	-0.75
374.294	-4.75
374.887	-1.75
375.479	-0.75
376.071	1.25
376.664	-2.75
377.256	-0.75
377.848	-0.75
378.44	-3.75
379.033	0.25
379.625	-4.75
380.217	1.25
380.808	-0.75
381.4	2.25
381.992	-2.75
382.584	1.25
383.176	0.25
383.767	-0.75
384.359	-0.75
384.95	-3.75
385.542	-0.75
386.133	-0.75
386.725	0.25
387.316	0.25
387.907	-3.75
388.498	-1.75
389.089	-0.75
389.68	-1.75
390.271	6.25
390.862	3.25
391.453	-3.75
392.044	1.25
392.635	0.25
393.225	2.25
393.816	3.25
394.407	-3.75
394.997	0.25
395.588	1.25
396.178	-1.75
396.768	-2.75
397.359	-0.75
397.949	-2.75
398.539	3.25
399.129	-0.75
399.719	-2.75
400.309	2.25
400.899	1.25
401.489	1.25
402.079	-0.75
402.668	-0.75
403.258	2.25
403.848	5.25
404.437	-1.75
405.027	1.25
405.616	1.25
406.206	1.25
406.795	2.25
407.384	4.25
407.973	1.25
408.563	3.25
409.152	1.25
409.741	6.25
410.33	7.25
410.919	2.25
411.508	4.25
412.096	0.25
412.685	-0.75
413.274	5.25
413.862	11.25
414.451	5.25
415.039	4.25
415.628	5.25
416.216	5.25
416.805	6.25
417.393	6.25
417.981	8.25
418.569	15.25
419.157	9.25
419.745	9.25
420.333	6.25
420.921	13.25
421.509	11.25
422.097	15.25
422.685	13.25
423.272	16.25
423.86	22.25
424.447	18.25
425.035	22.25
425.622	25.25
426.21	24.25
426.797	26.25
427.384	28.25
427.972	30.25
428.559	30.25
429.146	35.25
429.733	39.25
430.32	40.25
430.907	48.25
431.494	45.25
432.08	51.25
432.667	56.25
433.254	60.25
433.84	64.25
434.427	73.25
435.013	76.25
435.6	85.25
436.186	92.25
436.772	96.25
437.359	108.25
437.945	117.25
438.531	125.25
439.117	140.25
439.703	141.25
440.289	152.25
440.875	168.25
441.461	182.25
442.047	196.25
442.632	209.25
443.218	230.25
443.804	255.25
444.389	263.25
444.975	288.25
445.56	297.25
446.145	329.25
446.731	350.25
447.316	368.25
447.901	383.25
448.486	435.25
449.071	453.25
449.656	495.25
450.241	536.25
450.826	559.25
451.411	607.25
451.996	659.25
452.58	716.25
453.165	763.25
453.75	833.25
454.334	872.25
454.919	976.25
455.503	1036.25
456.087	1094.25
456.672	1205.25
457.256	1266.25
457.84	1359.25
458.424	1457.25
459.008	1525.25
459.592	1638.25
460.176	1746.25
460.76	1837.25
461.344	1912.25
461.927	2005.25
462.511	2085.25
463.095	2152.25
463.678	2201.25
464.262	2240.25
464.845	2211.25
465.429	2195.25
466.012	2240.25
466.595	2173.25
467.178	2128.25
467.762	2053.25
468.345	1974.25
468.928	1897.25
469.511	1809.25
470.094	1684.25
470.676	1593.25
471.259	1479.25
471.842	1420.25
472.425	1341.25
473.007	1246.25
473.59	1179.25
474.172	1066.25
474.755	994.25
475.337	914.25
475.919	890.25
476.502	821.25
477.084	780.25
477.666	735.25
478.248	688.25
478.83	668.25
479.412	628.25
479.994	575.25
480.576	586.25
481.157	531.25
481.739	505.25
482.321	478.25
482.902	465.25
483.484	427.25
484.065	400.25
484.647	385.25
485.228	359.25
485.809	342.25
486.391	317.25
486.972	308.25
487.553	283.25
488.134	269.25
488.715	250.25
489.296	221.25
489.877	201.25
490.458	199.25
491.038	193.25
491.619	182.25
492.2	168.25
492.78	162.25
493.361	146.25
493.941	150.25
494.522	143.25
495.102	133.25
495.682	124.25
496.262	124.25
496.843	115.25
497.423	112.25
498.003	109.25
498.583	106.25
499.163	107.25
499.742	102.25
500.322	103.25
500.902	98.25
501.482	92.25
502.061	96.25
502.641	91.25
503.22	84.25
503.8	85.25
504.379	81.25
504.958	84.25
505.538	76.25
506.117	77.25
506.696	77.25
507.275	75.25
507.854	78.25
508.433	72.25
509.012	76.25
509.591	73.25
510.169	77.25
510.748	84.25
511.327	85.25
511.905	83.25
512.484	92.25
513.062	94.25
513.641	101.25
514.219	104.25
514.797	101.25
515.375	118.25
515.954	115.25
516.532	126.25
517.11	135.25
517.688	144.25
518.266	142.25
518.843	149.25
519.421	168.25
519.999	170.25
520.577	174.25
521.154	181.25
521.732	188.25
522.309	216.25
522.887	218.25
523.464	215.25
524.041	227.25
524.619	240.25
525.196	250.25
525.773	269.25
526.35	271.25
526.927	277.25
527.504	273.25
528.081	283.25
528.658	296.25
529.235	293.25
529.811	288.25
530.388	301.25
530.964	306.25
531.541	310.25
532.117	307.25
532.694	308.25
533.27	303.25
533.846	306.25
534.423	294.25
534.999	300.25
535.575	300.25
536.151	305.25
536.727	304.25
537.303	305.25
537.879	303.25
538.455	307.25
539.03	291.25
539.606	282.25
540.182	287.25
540.757	288.25
541.333	292.25
541.908	295.25
542.483	290.25
543.059	285.25
543.634	272.25
544.209	273.25
544.784	277.25
545.359	270.25
545.934	262.25
546.509	267.25
547.084	256.25
547.659	267.25
548.234	253.25
548.808	256.25
549.383	253.25
549.958	248.25
550.532	245.25
551.107	258.25
551.681	247.25
552.255	241.25
552.83	232.25
553.404	248.25
553.978	237.25
554.552	234.25
555.126	241.25
555.7	236.25
556.274	246.25
556.848	252.25
557.422	244.25
557.995	246.25
558.569	257.25
559.143	249.25
559.716	258.25
560.29	253.25
560.863	255.25
561.437	269.25
562.01	273.25
562.583	271.25
563.156	269.25
563.729	280.25
564.302	275.25
564.875	280.25
565.448	289.25
566.021	286.25
566.594	282.25
567.167	291.25
567.74	288.25
568.312	302.25
568.885	307.25
569.457	316.25
570.03	309.25
570.602	314.25
571.174	315.25
571.747	306.25
572.319	314.25
572.891	312.25
573.463	317.25
574.035	315.25
574.607	317.25
575.179	313.25
575.751	313.25
576.323	317.25
576.894	307.25
577.466	307.25
578.038	303.25
578.609	312.25
579.181	300.25
579.752	310.25
580.323	307.25
580.895	305.25
581.466	304.25
582.037	308.25
582.608	299.25
583.179	322.25
583.75	319.25
584.321	328.25
584.892	320.25
585.463	315.25
586.033	315.25
586.604	331.25
587.175	329.25
587.745	330.25
588.316	325.25
588.886	324.25
589.457	320.25
590.027	321.25
590.597	320.25
591.167	330.25
591.737	324.25
592.308	326.25
592.878	326.25
593.447	318.25
594.017	308.25
594.587	318.25
595.157	305.25
595.727	314.25
596.296	309.25
596.866	307.25
597.435	304.25
598.005	291.25
598.574	303.25
599.143	296.25
599.713	292.25
600.282	288.25
600.851	287.25
601.42	287.25
601.989	291.25
602.558	294.25
603.127	274.25
603.696	293.25
604.265	287.25
604.833	295.25
605.402	272.25
605.971	282.25
606.539	292.25
607.108	293.25
607.676	291.25
608.244	287.25
608.813	283.25
609.381	279.25
609.949	278.25
610.517	271.25
611.085	281.25
611.653	290.25
612.221	264.25
612.789	278.25
613.357	268.25
613.924	278.25
614.492	273.25
615.06	278.25
615.627	268.25
616.195	261.25
616.762	276.25
617.329	272.25
617.897	271.25
618.464	281.25
619.031	264.25
619.598	271.25
620.165	267.25
620.732	267.25
621.299	270.25
621.866	256.25
622.433	256.25
623	275.25
623.566	266.25
624.133	267.25
624.7	259.25
625.266	255.25
625.832	251.25
626.399	255.25
626.965	254.25
627.531	268.25
628.098	262.25
628.664	251.25
629.23	245.25
629.796	255.25
630.362	250.25
630.928	253.25
631.493	246.25
632.059	249.25
632.625	240.25
633.19	243.25
633.756	239.25
634.322	248.25
634.887	232.25
635.452	243.25
636.018	230.25
636.583	229.25
637.148	239.25
637.713	229.25
638.278	230.25
638.843	229.25
639.408	218.25
639.973	219.25
640.538	221.25
641.103	213.25
641.667	215.25
642.232	226.25
642.797	210.25
643.361	198.25
643.926	205.25
644.49	215.25
645.054	206.25
645.619	203.25
646.183	202.25
646.747	200.25
647.311	194.25
647.875	192.25
648.439	198.25
649.003	196.25
649.567	191.25
650.131	179.25
650.694	190.25
651.258	183.25
651.822	196.25
652.385	176.25
652.949	175.25
653.512	187.25
654.075	182.25
654.639	180.25
655.202	174.25
655.765	165.25
656.328	168.25
656.891	171.25
657.454	171.25
658.017	171.25
658.58	171.25
659.143	170.25
659.705	159.25
660.268	168.25
660.83	166.25
661.393	165.25
661.955	147.25
662.518	154.25
663.08	146.25
663.643	157.25
664.205	160.25
664.767	150.25
665.329	154.25
665.891	137.25
666.453	142.25
667.015	145.25
667.577	137.25
668.139	139.25
668.7	138.25
669.262	143.25
669.824	135.25
670.385	136.25
670.947	129.25
671.508	123.25
672.069	130.25
672.631	125.25
673.192	123.25
673.753	131.25
674.314	123.25
674.875	127.25
675.436	132.25
675.997	118.25
676.558	124.25
677.119	126.25
677.679	121.25
678.24	127.25
678.801	124.25
679.361	129.25
679.922	126.25
680.482	122.25
681.042	121.25
681.603	110.25
682.163	124.25
682.723	123.25
683.283	130.25
683.843	115.25
684.403	113.25
684.963	111.25
685.523	115.25
686.083	114.25
686.642	110.25
687.202	103.25
687.762	110.25
688.321	104.25
688.881	104.25
689.44	100.25
690	102.25
690.559	100.25
691.118	92.25
691.677	103.25
692.236	93.25
692.795	94.25
693.354	88.25
693.913	84.25
694.472	90.25
695.031	86.25
695.59	84.25
696.148	85.25
696.707	90.25
697.265	89.25
697.824	88.25
698.382	85.25
698.941	84.25
699.499	78.25
700.057	83.25
700.615	77.25
701.173	80.25
701.731	83.25
702.289	69.25
702.847	74.25
703.405	69.25
703.963	74.25
704.521	67.25
705.078	71.25
705.636	67.25
706.194	62.25
706.751	66.25
707.308	63.25
707.866	72.25
708.423	68.25
708.98	62.25
709.537	60.25
710.095	60.25
710.652	63.25
711.209	62.25
711.765	64.25
712.322	59.25
712.879	64.25
713.436	55.25
713.992	63.25
714.549	50.25
715.106	63.25
715.662	57.25
716.218	51.25
716.775	58.25
717.331	52.25
717.887	53.25
718.443	47.25
719	48.25
719.556	49.25
720.112	57.25
720.667	55.25
721.223	46.25
721.779	50.25
722.335	46.25
722.89	42.25
723.446	41.25
724.002	43.25
724.557	49.25
725.112	43.25
725.668	48.25
726.223	40.25
726.778	47.25
727.333	42.25
727.888	36.25
728.443	46.25
728.998	41.25
729.553	39.25
730.108	37.25
730.663	43.25
731.218	39.25
731.772	32.25
732.327	37.25
732.881	40.25
733.436	38.25
733.99	40.25
734.545	34.25
735.099	37.25
735.653	34.25
736.207	37.25
736.761	35.25
737.315	33.25
737.869	38.25
738.423	29.25
738.977	32.25
739.531	35.25
740.084	29.25
740.638	27.25
741.192	33.25
741.745	27.25
742.299	34.25
742.852	28.25
743.405	23.25
743.959	26.25
744.512	27.25
745.065	29.25
745.618	24.25
746.171	26.25
746.724	33.25
747.277	26.25
747.83	25.25
748.382	27.25
748.935	26.25
749.488	21.25
750.04	24.25
750.593	18.25
751.145	21.25
751.698	28.25
752.25	22.25
752.802	21.25
753.354	23.25
753.906	21.25
754.458	18.25
755.01	18.25
755.562	20.25
756.114	27.25
756.666	26.25
757.218	17.25
757.769	22.25
758.321	22.25
758.873	16.25
759.424	25.25
759.975	18.25
760.527	19.25
761.078	19.25
761.629	22.25
762.181	18.25
762.732	20.25
763.283	17.25
763.834	15.25
764.385	12.25
764.935	13.25
765.486	17.25
766.037	9.25
766.588	17.25
767.138	12.25
767.689	15.25
768.239	17.25
768.79	15.25
769.34	14.25
769.89	13.25
770.44	8.25
770.991	13.25
771.541	12.25
772.091	13.25
772.641	13.25
773.191	18.25
773.74	14.25
774.29	14.25
774.84	13.25
775.39	14.25
775.939	17.25
776.489	12.25
777.038	11.25
777.588	9.25
778.137	13.25
778.686	13.25
779.235	14.25
779.784	12.25
780.334	12.25
780.883	11.25
781.431	10.25
781.98	8.25
782.529	9.25
783.078	4.25
783.627	9.25
784.175	14.25
784.724	10.25
785.272	8.25
785.821	8.25
786.369	8.25
786.917	16.25
787.466	6.25
788.014	12.25
788.562	11.25
789.11	13.25
789.658	11.25
790.206	11.25
790.754	8.25
791.302	9.25
791.849	11.25
792.397	8.25
792.945	15.25
793.492	7.25
794.04	7.25
794.587	8.25
795.134	9.25
795.682	5.25
796.229	9.25
796.776	8.25
797.323	10.25
797.87	3.25
798.417	4.25
798.964	13.25
799.511	6.25
800.058	6.25
800.604	7.25
801.151	3.25
801.698	5.25
802.244	4.25
802.791	6.25
803.337	7.25
803.883	-1.75
804.43	3.25
804.976	4.25
805.522	6.25
806.068	5.25
806.614	8.25
807.16	6.25
807.706	6.25
808.252	8.25
808.797	2.25
809.343	4.25
809.889	7.25
810.434	4.25
810.98	4.25
811.525	2.25
812.071	8.25
812.616	5.25
813.161	7.25
813.706	0.25
814.252	5.25
814.797	1.25
815.342	3.25
815.886	4.25
816.431	2.25
816.976	3.25
817.521	2.25
818.066	5.25
818.61	2.25
819.155	7.25
819.699	2.25
820.244	8.25
820.788	-1.75
821.332	1.25
821.876	-0.75
822.421	3.25
822.965	-0.75
823.509	3.25
824.053	7.25
824.597	4.25
825.14	1.25
825.684	5.25
826.228	4.25
826.771	0.25
827.315	2.25
827.859	-0.75
828.402	1.25
828.945	4.25
829.489	6.25
830.032	3.25
830.575	-1.75
831.118	2.25
831.661	1.25
832.204	3.25
832.747	5.25
833.29	1.25
833.833	2.25
834.376	1.25
834.918	2.25
835.461	3.25
836.004	2.25
836.546	0.25
837.088	2.25
837.631	2.25
838.173	2.25
838.715	2.25
839.257	6.25
839.8	0.25
840.342	5.25
840.884	1.25
841.425	0.25
841.967	-0.75
842.509	1.25
843.051	-2.75
843.592	2.25
844.134	-0.75
844.676	2.25
845.217	2.25
845.758	1.25
846.3	-0.75
846.841	3.25
847.382	1.25
847.923	5.25
848.464	-1.75
849.005	-0.75
849.546	0.25
850.087	4.25
850.628	1.25
851.169	1.25
851.709	3.25
852.25	0.25
852.791	4.25
853.331	1.25
853.871	1.25
854.412	-1.75
854.952	-1.75
855.492	-0.75
856.033	1.25
856.573	-0.75
857.113	-0.75
857.653	-0.75
858.193	1.25
858.732	0.25
859.272	2.25
859.812	1.25
860.352	-0.75
860.891	1.25
861.431	-4.75
861.97	1.25
862.509	-0.75
863.049	-0.75
863.588	-0.75
864.127	2.25
864.666	4.25
865.205	-0.75
865.744	-2.75
866.283	4.25
866.822	1.25
867.361	-4.75
867.9	-0.75
868.438	1.25
868.977	-2.75
869.516	0.25
870.054	-0.75
870.593	1.25
871.131	1.25
871.669	1.25
872.207	5.25
872.746	-1.75
873.284	3.25
873.822	-1.75
874.36	1.25
874.898	-1.75
875.435	-1.75
875.973	-3.75
876.511	3.25
877.048	-5.75
877.586	3.25
878.124	3.25
878.661	-0.75
879.198	0.25
879.736	-1.75
880.273	-0.75
880.81	0.25
881.347	2.25
881.884	1.25
882.421	1.25
882.958	2.25
883.495	-0.75
884.032	1.25
884.569	-3.75
885.105	-4.75
885.642	-1.75
886.178	4.25
886.715	0.25
887.251	-0.75
887.788	-0.75
888.324	-0.75
888.86	0.25
889.396	-2.75
889.932	2.25
890.468	2.25
891.004	0.25
891.54	-2.75
892.076	-2.75
892.612	-2.75
893.147	0.25
893.683	2.25
894.219	-0.75
894.754	1.25
895.29	-0.75
895.825	-0.75
896.36	2.25
896.896	-1.75
897.431	-3.75
897.966	-0.75
898.501	-1.75
899.036	-0.75
899.571	-1.75
900.106	-0.75
900.64	-0.75
901.175	1.25
901.71	-4.75
902.244	4.25
902.779	-2.75
903.313	1.25
903.848	-3.75
904.382	0.25
904.916	2.25
905.45	1.25
905.985	-4.75
906.519	-0.75
907.053	-2.75
907.587	0.25
908.12	-2.75
908.654	-1.75
909.188	-3.75
909.722	-2.75
910.255	0.25
910.789	0.25
911.322	-1.75
911.856	-1.75
912.389	2.25
912.922	-0.75
913.456	0.25
913.989	0.25
914.522	-1.75
915.055	0.25
915.588	-0.75
916.121	0.25
916.653	-1.75
917.186	-1.75
917.719	0.25
918.252	-0.75
918.784	4.25
919.317	1.25
919.849	1.25
920.381	-2.75
920.914	0.25
921.446	1.25
921.978	-1.75
922.51	-1.75
923.042	-3.75
923.574	-0.75
924.106	1.25
924.638	-0.75
925.17	-2.75
925.701	1.25
926.233	1.25
926.765	4.25
927.296	2.25
927.828	0.25
928.359	-1.75
928.89	0.25
929.422	-1.75
929.953	0.25
930.484	0.25
931.015	-4.75
931.546	-1.75
932.077	0.25
932.608	1.25
933.138	-0.75
933.669	-0.75
934.2	-3.75
934.73	-0.75
935.261	-4.75
