Data from LOOPyPMA-1_QEP046991__39__18-11-48-758.txt Node

Date: Sun May 11 18:11:48 CEST 2025
User: superuser
Spectrometer: QEP04699
Trigger mode: 4
Integration Time (sec): 1.000000E-1
Scans to average: 1
Electric dark correction enabled: true
Nonlinearity correction enabled: false
Boxcar width: 0
XAxis mode: Wavelengths
Number of Pixels in Spectrum: 1044
>>>>>Begin Spectral Data<<<<<
347.57	12.88
348.165	0.88
348.76	-0.12
349.355	-7.12
349.95	-3.12
350.545	1.88
351.14	-5.12
351.735	-1.12
352.33	-0.12
352.924	-4.12
353.519	0.88
354.114	1.88
354.708	-2.12
355.303	-1.12
355.897	-1.12
356.491	-4.12
357.086	-2.12
357.68	-2.12
358.274	-0.12
358.868	1.88
359.462	-1.12
360.056	-0.12
360.65	-4.12
361.244	2.88
361.838	-2.12
362.431	-3.12
363.025	-2.12
363.619	-4.12
364.212	-2.12
364.806	-3.12
365.399	-2.12
365.993	-4.12
366.586	-0.12
367.179	-6.12
367.772	0.88
368.366	-0.12
368.959	-1.12
369.552	-3.12
370.145	2.88
370.738	-0.12
371.331	1.88
371.923	-4.12
372.516	-1.12
373.109	-1.12
373.701	-4.12
374.294	0.88
374.887	0.88
375.479	-4.12
376.071	-2.12
376.664	-1.12
377.256	1.88
377.848	-4.12
378.44	-2.12
379.033	2.88
379.625	-4.12
380.217	-4.12
380.808	-2.12
381.4	-0.12
381.992	-2.12
382.584	-0.12
383.176	-1.12
383.767	2.88
384.359	0.88
384.95	-0.12
385.542	0.88
386.133	2.88
386.725	0.88
387.316	1.88
387.907	-1.12
388.498	0.88
389.089	-2.12
389.68	0.88
390.271	-4.12
390.862	-0.12
391.453	1.88
392.044	-0.12
392.635	-1.12
393.225	-0.12
393.816	-1.12
394.407	-1.12
394.997	0.88
395.588	-3.12
396.178	-1.12
396.768	0.88
397.359	-2.12
397.949	3.88
398.539	-0.12
399.129	3.88
399.719	-0.12
400.309	1.88
400.899	1.88
401.489	0.88
402.079	-1.12
402.668	1.88
403.258	1.88
403.848	0.88
404.437	1.88
405.027	-0.12
405.616	2.88
406.206	3.88
406.795	-3.12
407.384	-1.12
407.973	1.88
408.563	0.88
409.152	2.88
409.741	6.88
410.33	1.88
410.919	2.88
411.508	2.88
412.096	3.88
412.685	4.88
413.274	6.88
413.862	1.88
414.451	3.88
415.039	5.88
415.628	3.88
416.216	0.88
416.805	5.88
417.393	5.88
417.981	10.88
418.569	6.88
419.157	7.88
419.745	10.88
420.333	12.88
420.921	14.88
421.509	5.88
422.097	9.88
422.685	17.88
423.272	13.88
423.86	17.88
424.447	15.88
425.035	20.88
425.622	19.88
426.21	21.88
426.797	27.88
427.384	29.88
427.972	30.88
428.559	30.88
429.146	31.88
429.733	44.88
430.32	42.88
430.907	48.88
431.494	53.88
432.08	54.88
432.667	59.88
433.254	64.88
433.84	60.88
434.427	72.88
435.013	75.88
435.6	85.88
436.186	93.88
436.772	99.88
437.359	109.88
437.945	115.88
438.531	123.88
439.117	134.88
439.703	147.88
440.289	154.88
440.875	165.88
441.461	183.88
442.047	198.88
442.632	215.88
443.218	222.88
443.804	244.88
444.389	264.88
444.975	281.88
445.56	303.88
446.145	329.88
446.731	354.88
447.316	374.88
447.901	403.88
448.486	430.88
449.071	453.88
449.656	494.88
450.241	536.88
450.826	583.88
451.411	603.88
451.996	653.88
452.58	727.88
453.165	780.88
453.75	825.88
454.334	897.88
454.919	960.88
455.503	1026.88
456.087	1122.88
456.672	1203.88
457.256	1288.88
457.84	1397.88
458.424	1487.88
459.008	1611.88
459.592	1701.88
460.176	1783.88
460.76	1874.88
461.344	1974.88
461.927	2054.88
462.511	2134.88
463.095	2180.88
463.678	2278.88
464.262	2267.88
464.845	2278.88
465.429	2280.88
466.012	2260.88
466.595	2248.88
467.178	2149.88
467.762	2096.88
468.345	2039.88
468.928	1929.88
469.511	1839.88
470.094	1731.88
470.676	1644.88
471.259	1544.88
471.842	1446.88
472.425	1348.88
473.007	1251.88
473.59	1170.88
474.172	1092.88
474.755	1026.88
475.337	977.88
475.919	878.88
476.502	861.88
477.084	801.88
477.666	756.88
478.248	718.88
478.83	676.88
479.412	635.88
479.994	600.88
480.576	597.88
481.157	559.88
481.739	534.88
482.321	517.88
482.902	473.88
483.484	446.88
484.065	432.88
484.647	399.88
485.228	383.88
485.809	346.88
486.391	332.88
486.972	312.88
487.553	293.88
488.134	276.88
488.715	267.88
489.296	239.88
489.877	226.88
490.458	217.88
491.038	196.88
491.619	187.88
492.2	170.88
492.78	167.88
493.361	161.88
493.941	150.88
494.522	138.88
495.102	145.88
495.682	134.88
496.262	134.88
496.843	128.88
497.423	111.88
498.003	119.88
498.583	103.88
499.163	110.88
499.742	104.88
500.322	101.88
500.902	91.88
501.482	96.88
502.061	89.88
502.641	91.88
503.22	91.88
503.8	86.88
504.379	84.88
504.958	78.88
505.538	81.88
506.117	74.88
506.696	73.88
507.275	83.88
507.854	77.88
508.433	76.88
509.012	79.88
509.591	77.88
510.169	78.88
510.748	70.88
511.327	82.88
511.905	80.88
512.484	85.88
513.062	94.88
513.641	94.88
514.219	98.88
514.797	108.88
515.375	103.88
515.954	109.88
516.532	118.88
517.11	129.88
517.688	129.88
518.266	148.88
518.843	141.88
519.421	146.88
519.999	161.88
520.577	174.88
521.154	180.88
521.732	188.88
522.309	195.88
522.887	203.88
523.464	213.88
524.041	225.88
524.619	229.88
525.196	235.88
525.773	254.88
526.35	259.88
526.927	258.88
527.504	260.88
528.081	265.88
528.658	280.88
529.235	277.88
529.811	280.88
530.388	298.88
530.964	281.88
531.541	279.88
532.117	288.88
532.694	289.88
533.27	281.88
533.846	280.88
534.423	285.88
534.999	296.88
535.575	281.88
536.151	270.88
536.727	285.88
537.303	278.88
537.879	284.88
538.455	281.88
539.03	279.88
539.606	274.88
540.182	266.88
540.757	275.88
541.333	264.88
541.908	262.88
542.483	264.88
543.059	264.88
543.634	263.88
544.209	262.88
544.784	257.88
545.359	256.88
545.934	262.88
546.509	252.88
547.084	248.88
547.659	252.88
548.234	243.88
548.808	234.88
549.383	238.88
549.958	236.88
550.532	234.88
551.107	226.88
551.681	220.88
552.255	226.88
552.83	238.88
553.404	226.88
553.978	223.88
554.552	230.88
555.126	226.88
555.7	226.88
556.274	227.88
556.848	236.88
557.422	225.88
557.995	234.88
558.569	234.88
559.143	237.88
559.716	235.88
560.29	234.88
560.863	233.88
561.437	241.88
562.01	254.88
562.583	249.88
563.156	251.88
563.729	264.88
564.302	263.88
564.875	259.88
565.448	275.88
566.021	272.88
566.594	286.88
567.167	281.88
567.74	279.88
568.312	280.88
568.885	289.88
569.457	286.88
570.03	292.88
570.602	292.88
571.174	284.88
571.747	295.88
572.319	299.88
572.891	299.88
573.463	290.88
574.035	281.88
574.607	288.88
575.179	282.88
575.751	291.88
576.323	282.88
576.894	303.88
577.466	297.88
578.038	298.88
578.609	294.88
579.181	284.88
579.752	286.88
580.323	281.88
580.895	285.88
581.466	294.88
582.037	290.88
582.608	303.88
583.179	298.88
583.75	285.88
584.321	301.88
584.892	292.88
585.463	305.88
586.033	303.88
586.604	303.88
587.175	305.88
587.745	312.88
588.316	303.88
588.886	310.88
589.457	306.88
590.027	300.88
590.597	320.88
591.167	304.88
591.737	292.88
592.308	299.88
592.878	303.88
593.447	293.88
594.017	292.88
594.587	289.88
595.157	286.88
595.727	290.88
596.296	287.88
596.866	283.88
597.435	281.88
598.005	289.88
598.574	274.88
599.143	289.88
599.713	278.88
600.282	269.88
600.851	270.88
601.42	257.88
601.989	271.88
602.558	270.88
603.127	270.88
603.696	279.88
604.265	259.88
604.833	268.88
605.402	278.88
605.971	263.88
606.539	274.88
607.108	262.88
607.676	251.88
608.244	269.88
608.813	271.88
609.381	264.88
609.949	260.88
610.517	257.88
611.085	264.88
611.653	266.88
612.221	258.88
612.789	248.88
613.357	262.88
613.924	257.88
614.492	254.88
615.06	248.88
615.627	250.88
616.195	256.88
616.762	259.88
617.329	251.88
617.897	239.88
618.464	250.88
619.031	247.88
619.598	240.88
620.165	250.88
620.732	256.88
621.299	243.88
621.866	250.88
622.433	245.88
623	248.88
623.566	251.88
624.133	222.88
624.7	242.88
625.266	238.88
625.832	239.88
626.399	243.88
626.965	246.88
627.531	239.88
628.098	238.88
628.664	232.88
629.23	234.88
629.796	238.88
630.362	227.88
630.928	245.88
631.493	228.88
632.059	231.88
632.625	222.88
633.19	237.88
633.756	214.88
634.322	224.88
634.887	220.88
635.452	224.88
636.018	228.88
636.583	216.88
637.148	211.88
637.713	218.88
638.278	211.88
638.843	210.88
639.408	207.88
639.973	200.88
640.538	214.88
641.103	205.88
641.667	205.88
642.232	202.88
642.797	198.88
643.361	204.88
643.926	199.88
644.49	206.88
645.054	188.88
645.619	196.88
646.183	189.88
646.747	191.88
647.311	185.88
647.875	187.88
648.439	180.88
649.003	187.88
649.567	181.88
650.131	179.88
650.694	172.88
651.258	167.88
651.822	176.88
652.385	174.88
652.949	170.88
653.512	167.88
654.075	157.88
654.639	157.88
655.202	163.88
655.765	165.88
656.328	156.88
656.891	161.88
657.454	150.88
658.017	150.88
658.58	159.88
659.143	150.88
659.705	154.88
660.268	155.88
660.83	152.88
661.393	147.88
661.955	148.88
662.518	149.88
663.08	142.88
663.643	141.88
664.205	143.88
664.767	135.88
665.329	141.88
665.891	146.88
666.453	134.88
667.015	140.88
667.577	142.88
668.139	142.88
668.7	127.88
669.262	138.88
669.824	128.88
670.385	139.88
670.947	127.88
671.508	125.88
672.069	129.88
672.631	126.88
673.192	112.88
673.753	123.88
674.314	118.88
674.875	126.88
675.436	114.88
675.997	119.88
676.558	114.88
677.119	111.88
677.679	123.88
678.24	119.88
678.801	117.88
679.361	111.88
679.922	113.88
680.482	110.88
681.042	106.88
681.603	118.88
682.163	104.88
682.723	111.88
683.283	108.88
683.843	116.88
684.403	109.88
684.963	104.88
685.523	97.88
686.083	106.88
686.642	98.88
687.202	97.88
687.762	98.88
688.321	103.88
688.881	97.88
689.44	91.88
690	100.88
690.559	88.88
691.118	95.88
691.677	84.88
692.236	85.88
692.795	86.88
693.354	87.88
693.913	86.88
694.472	86.88
695.031	81.88
695.59	72.88
696.148	82.88
696.707	72.88
697.265	81.88
697.824	82.88
698.382	72.88
698.941	68.88
699.499	73.88
700.057	66.88
700.615	73.88
701.173	69.88
701.731	73.88
702.289	69.88
702.847	68.88
703.405	60.88
703.963	63.88
704.521	66.88
705.078	64.88
705.636	67.88
706.194	69.88
706.751	65.88
707.308	64.88
707.866	71.88
708.423	65.88
708.98	55.88
709.537	57.88
710.095	59.88
710.652	62.88
711.209	52.88
711.765	57.88
712.322	48.88
712.879	53.88
713.436	51.88
713.992	52.88
714.549	55.88
715.106	50.88
715.662	53.88
716.218	49.88
716.775	50.88
717.331	56.88
717.887	50.88
718.443	48.88
719	42.88
719.556	49.88
720.112	42.88
720.667	49.88
721.223	49.88
721.779	42.88
722.335	37.88
722.89	43.88
723.446	38.88
724.002	40.88
724.557	40.88
725.112	37.88
725.668	39.88
726.223	42.88
726.778	43.88
727.333	41.88
727.888	37.88
728.443	35.88
728.998	34.88
729.553	31.88
730.108	36.88
730.663	31.88
731.218	34.88
731.772	30.88
732.327	33.88
732.881	38.88
733.436	38.88
733.99	29.88
734.545	29.88
735.099	28.88
735.653	30.88
736.207	31.88
736.761	30.88
737.315	25.88
737.869	31.88
738.423	32.88
738.977	27.88
739.531	27.88
740.084	30.88
740.638	26.88
741.192	31.88
741.745	27.88
742.299	25.88
742.852	24.88
743.405	25.88
743.959	31.88
744.512	25.88
745.065	27.88
745.618	20.88
746.171	27.88
746.724	22.88
747.277	25.88
747.83	29.88
748.382	20.88
748.935	22.88
749.488	21.88
750.04	26.88
750.593	19.88
751.145	20.88
751.698	18.88
752.25	22.88
752.802	21.88
753.354	22.88
753.906	17.88
754.458	22.88
755.01	20.88
755.562	23.88
756.114	21.88
756.666	19.88
757.218	20.88
757.769	21.88
758.321	14.88
758.873	23.88
759.424	15.88
759.975	19.88
760.527	20.88
761.078	14.88
761.629	15.88
762.181	19.88
762.732	13.88
763.283	14.88
763.834	13.88
764.385	14.88
764.935	17.88
765.486	13.88
766.037	14.88
766.588	10.88
767.138	14.88
767.689	19.88
768.239	13.88
768.79	14.88
769.34	15.88
769.89	12.88
770.44	13.88
770.991	18.88
771.541	12.88
772.091	11.88
772.641	14.88
773.191	15.88
773.74	14.88
774.29	8.88
774.84	13.88
775.39	13.88
775.939	15.88
776.489	13.88
777.038	8.88
777.588	14.88
778.137	11.88
778.686	9.88
779.235	13.88
779.784	12.88
780.334	5.88
780.883	12.88
781.431	6.88
781.98	8.88
782.529	8.88
783.078	11.88
783.627	5.88
784.175	9.88
784.724	9.88
785.272	10.88
785.821	10.88
786.369	9.88
786.917	9.88
787.466	11.88
788.014	5.88
788.562	11.88
789.11	9.88
789.658	9.88
790.206	8.88
790.754	10.88
791.302	4.88
791.849	3.88
792.397	9.88
792.945	10.88
793.492	8.88
794.04	7.88
794.587	4.88
795.134	4.88
795.682	6.88
796.229	7.88
796.776	8.88
797.323	9.88
797.87	6.88
798.417	7.88
798.964	4.88
799.511	7.88
800.058	3.88
800.604	7.88
801.151	5.88
801.698	1.88
802.244	5.88
802.791	5.88
803.337	7.88
803.883	3.88
804.43	3.88
804.976	-0.12
805.522	1.88
806.068	3.88
806.614	4.88
807.16	0.88
807.706	2.88
808.252	-0.12
808.797	1.88
809.343	3.88
809.889	4.88
810.434	6.88
810.98	3.88
811.525	2.88
812.071	6.88
812.616	6.88
813.161	3.88
813.706	-1.12
814.252	5.88
814.797	7.88
815.342	2.88
815.886	0.88
816.431	0.88
816.976	3.88
817.521	2.88
818.066	0.88
818.61	1.88
819.155	2.88
819.699	2.88
820.244	0.88
820.788	1.88
821.332	5.88
821.876	0.88
822.421	4.88
822.965	0.88
823.509	2.88
824.053	2.88
824.597	2.88
825.14	4.88
825.684	6.88
826.228	0.88
826.771	1.88
827.315	-1.12
827.859	0.88
828.402	2.88
828.945	2.88
829.489	1.88
830.032	3.88
830.575	1.88
831.118	1.88
831.661	0.88
832.204	1.88
832.747	4.88
833.29	2.88
833.833	1.88
834.376	0.88
834.918	-0.12
835.461	-1.12
836.004	2.88
836.546	3.88
837.088	3.88
837.631	3.88
838.173	1.88
838.715	3.88
839.257	-0.12
839.8	0.88
840.342	1.88
840.884	-2.12
841.425	2.88
841.967	-1.12
842.509	2.88
843.051	-0.12
843.592	1.88
844.134	-3.12
844.676	2.88
845.217	1.88
845.758	1.88
846.3	1.88
846.841	1.88
847.382	-2.12
847.923	4.88
848.464	-1.12
849.005	0.88
849.546	1.88
850.087	-3.12
850.628	1.88
851.169	1.88
851.709	2.88
852.25	2.88
852.791	0.88
853.331	0.88
853.871	-1.12
854.412	1.88
854.952	-1.12
855.492	1.88
856.033	-3.12
856.573	0.88
857.113	-0.12
857.653	-0.12
858.193	2.88
858.732	-1.12
859.272	2.88
859.812	-2.12
860.352	-0.12
860.891	2.88
861.431	1.88
861.97	-3.12
862.509	-2.12
863.049	-0.12
863.588	-1.12
864.127	-0.12
864.666	-3.12
865.205	-3.12
865.744	0.88
866.283	-2.12
866.822	5.88
867.361	5.88
867.9	-1.12
868.438	0.88
868.977	1.88
869.516	2.88
870.054	-2.12
870.593	-3.12
871.131	-4.12
871.669	-3.12
872.207	0.88
872.746	-2.12
873.284	-2.12
873.822	-2.12
874.36	-1.12
874.898	-3.12
875.435	2.88
875.973	-7.12
876.511	-1.12
877.048	-0.12
877.586	1.88
878.124	2.88
878.661	0.88
879.198	-1.12
879.736	2.88
880.273	-0.12
880.81	1.88
881.347	-1.12
881.884	-4.12
882.421	-3.12
882.958	-1.12
883.495	-3.12
884.032	-1.12
884.569	-3.12
885.105	1.88
885.642	0.88
886.178	-1.12
886.715	-3.12
887.251	1.88
887.788	-3.12
888.324	-2.12
888.86	1.88
889.396	-2.12
889.932	-1.12
890.468	-2.12
891.004	-4.12
891.54	-4.12
892.076	0.88
892.612	-0.12
893.147	-1.12
893.683	-2.12
894.219	-1.12
894.754	-0.12
895.29	-1.12
895.825	-3.12
896.36	-0.12
896.896	-0.12
897.431	1.88
897.966	-2.12
898.501	-1.12
899.036	0.88
899.571	-6.12
900.106	-1.12
900.64	-1.12
901.175	-3.12
901.71	-0.12
902.244	-1.12
902.779	1.88
903.313	-4.12
903.848	-2.12
904.382	1.88
904.916	0.88
905.45	-1.12
905.985	-2.12
906.519	1.88
907.053	-1.12
907.587	-3.12
908.12	0.88
908.654	-5.12
909.188	-2.12
909.722	-3.12
910.255	-2.12
910.789	-1.12
911.322	2.88
911.856	-3.12
912.389	-3.12
912.922	-2.12
913.456	-3.12
913.989	0.88
914.522	-3.12
915.055	-2.12
915.588	0.88
916.121	-1.12
916.653	-4.12
917.186	-2.12
917.719	-4.12
918.252	-0.12
918.784	-2.12
919.317	1.88
919.849	-2.12
920.381	-1.12
920.914	0.88
921.446	2.88
921.978	-0.12
922.51	-1.12
923.042	-4.12
923.574	0.88
924.106	0.88
924.638	-3.12
925.17	-4.12
925.701	-1.12
926.233	0.88
926.765	-2.12
927.296	-3.12
927.828	-0.12
928.359	-0.12
928.89	-3.12
929.422	-3.12
929.953	-2.12
930.484	-4.12
931.015	-0.12
931.546	-3.12
932.077	-0.12
932.608	1.88
933.138	3.88
933.669	-1.12
934.2	1.88
934.73	-1.12
935.261	-6.12
