Data from LOOPyPMA-1_QEP046991__11__18-11-20-757.txt Node

Date: Sun May 11 18:11:20 CEST 2025
User: superuser
Spectrometer: QEP04699
Trigger mode: 4
Integration Time (sec): 1.000000E-1
Scans to average: 1
Electric dark correction enabled: true
Nonlinearity correction enabled: false
Boxcar width: 0
XAxis mode: Wavelengths
Number of Pixels in Spectrum: 1044
>>>>>Begin Spectral Data<<<<<
347.57	9.38
348.165	-1.62
348.76	0.38
349.355	-0.62
349.95	-3.62
350.545	2.38
351.14	-0.62
351.735	4.38
352.33	2.38
352.924	1.38
353.519	0.38
354.114	0.38
354.708	2.38
355.303	-0.62
355.897	0.38
356.491	-5.62
357.086	0.38
357.68	-0.62
358.274	-1.62
358.868	5.38
359.462	0.38
360.056	-0.62
360.65	1.38
361.244	2.38
361.838	-1.62
362.431	1.38
363.025	0.38
363.619	0.38
364.212	0.38
364.806	2.38
365.399	2.38
365.993	-1.62
366.586	-4.62
367.179	1.38
367.772	-4.62
368.366	2.38
368.959	-1.62
369.552	-0.62
370.145	0.38
370.738	-1.62
371.331	-0.62
371.923	5.38
372.516	2.38
373.109	-0.62
373.701	2.38
374.294	0.38
374.887	1.38
375.479	0.38
376.071	3.38
376.664	2.38
377.256	-0.62
377.848	0.38
378.44	2.38
379.033	1.38
379.625	3.38
380.217	2.38
380.808	-1.62
381.4	3.38
381.992	1.38
382.584	1.38
383.176	-1.62
383.767	5.38
384.359	1.38
384.95	0.38
385.542	-1.62
386.133	3.38
386.725	-1.62
387.316	-2.62
387.907	1.38
388.498	2.38
389.089	2.38
389.68	1.38
390.271	2.38
390.862	0.38
391.453	-0.62
392.044	0.38
392.635	2.38
393.225	3.38
393.816	1.38
394.407	-0.62
394.997	-0.62
395.588	3.38
396.178	-1.62
396.768	-5.62
397.359	3.38
397.949	0.38
398.539	-3.62
399.129	0.38
399.719	2.38
400.309	2.38
400.899	7.38
401.489	1.38
402.079	4.38
402.668	2.38
403.258	3.38
403.848	8.38
404.437	2.38
405.027	-2.62
405.616	1.38
406.206	5.38
406.795	6.38
407.384	1.38
407.973	1.38
408.563	2.38
409.152	5.38
409.741	5.38
410.33	7.38
410.919	4.38
411.508	3.38
412.096	3.38
412.685	8.38
413.274	6.38
413.862	4.38
414.451	6.38
415.039	3.38
415.628	4.38
416.216	10.38
416.805	8.38
417.393	12.38
417.981	11.38
418.569	11.38
419.157	12.38
419.745	14.38
420.333	12.38
420.921	12.38
421.509	16.38
422.097	16.38
422.685	17.38
423.272	19.38
423.86	21.38
424.447	22.38
425.035	22.38
425.622	25.38
426.21	27.38
426.797	30.38
427.384	32.38
427.972	37.38
428.559	30.38
429.146	35.38
429.733	41.38
430.32	37.38
430.907	47.38
431.494	51.38
432.08	51.38
432.667	54.38
433.254	61.38
433.84	71.38
434.427	70.38
435.013	77.38
435.6	84.38
436.186	99.38
436.772	98.38
437.359	96.38
437.945	106.38
438.531	127.38
439.117	140.38
439.703	151.38
440.289	159.38
440.875	173.38
441.461	189.38
442.047	197.38
442.632	217.38
443.218	237.38
443.804	252.38
444.389	266.38
444.975	288.38
445.56	313.38
446.145	315.38
446.731	351.38
447.316	385.38
447.901	393.38
448.486	435.38
449.071	465.38
449.656	505.38
450.241	533.38
450.826	584.38
451.411	606.38
451.996	664.38
452.58	708.38
453.165	756.38
453.75	816.38
454.334	894.38
454.919	936.38
455.503	1017.38
456.087	1113.38
456.672	1190.38
457.256	1268.38
457.84	1383.38
458.424	1472.38
459.008	1577.38
459.592	1629.38
460.176	1706.38
460.76	1862.38
461.344	1947.38
461.927	1987.38
462.511	2060.38
463.095	2151.38
463.678	2172.38
464.262	2199.38
464.845	2233.38
465.429	2224.38
466.012	2206.38
466.595	2147.38
467.178	2106.38
467.762	2057.38
468.345	1962.38
468.928	1884.38
469.511	1787.38
470.094	1676.38
470.676	1606.38
471.259	1509.38
471.842	1416.38
472.425	1313.38
473.007	1226.38
473.59	1127.38
474.172	1076.38
474.755	990.38
475.337	919.38
475.919	866.38
476.502	814.38
477.084	753.38
477.666	732.38
478.248	686.38
478.83	657.38
479.412	616.38
479.994	589.38
480.576	565.38
481.157	539.38
481.739	511.38
482.321	466.38
482.902	446.38
483.484	440.38
484.065	425.38
484.647	398.38
485.228	362.38
485.809	328.38
486.391	323.38
486.972	306.38
487.553	282.38
488.134	270.38
488.715	246.38
489.296	239.38
489.877	202.38
490.458	197.38
491.038	196.38
491.619	178.38
492.2	177.38
492.78	159.38
493.361	153.38
493.941	139.38
494.522	143.38
495.102	127.38
495.682	129.38
496.262	119.38
496.843	115.38
497.423	118.38
498.003	111.38
498.583	107.38
499.163	105.38
499.742	106.38
500.322	95.38
500.902	93.38
501.482	101.38
502.061	90.38
502.641	86.38
503.22	89.38
503.8	82.38
504.379	83.38
504.958	82.38
505.538	75.38
506.117	73.38
506.696	71.38
507.275	81.38
507.854	74.38
508.433	77.38
509.012	84.38
509.591	79.38
510.169	78.38
510.748	73.38
511.327	87.38
511.905	88.38
512.484	85.38
513.062	101.38
513.641	101.38
514.219	102.38
514.797	112.38
515.375	112.38
515.954	124.38
516.532	129.38
517.11	135.38
517.688	144.38
518.266	152.38
518.843	163.38
519.421	160.38
519.999	194.38
520.577	191.38
521.154	198.38
521.732	210.38
522.309	213.38
522.887	217.38
523.464	230.38
524.041	238.38
524.619	254.38
525.196	262.38
525.773	258.38
526.35	292.38
526.927	279.38
527.504	287.38
528.081	301.38
528.658	291.38
529.235	301.38
529.811	309.38
530.388	311.38
530.964	303.38
531.541	310.38
532.117	310.38
532.694	309.38
533.27	304.38
533.846	322.38
534.423	303.38
534.999	316.38
535.575	316.38
536.151	318.38
536.727	305.38
537.303	311.38
537.879	301.38
538.455	314.38
539.03	300.38
539.606	313.38
540.182	296.38
540.757	293.38
541.333	301.38
541.908	291.38
542.483	299.38
543.059	297.38
543.634	272.38
544.209	273.38
544.784	272.38
545.359	278.38
545.934	271.38
546.509	277.38
547.084	264.38
547.659	270.38
548.234	260.38
548.808	269.38
549.383	259.38
549.958	255.38
550.532	264.38
551.107	258.38
551.681	248.38
552.255	247.38
552.83	255.38
553.404	244.38
553.978	251.38
554.552	256.38
555.126	249.38
555.7	239.38
556.274	247.38
556.848	249.38
557.422	261.38
557.995	258.38
558.569	255.38
559.143	266.38
559.716	259.38
560.29	262.38
560.863	269.38
561.437	269.38
562.01	275.38
562.583	288.38
563.156	286.38
563.729	291.38
564.302	291.38
564.875	303.38
565.448	295.38
566.021	297.38
566.594	294.38
567.167	313.38
567.74	312.38
568.312	312.38
568.885	317.38
569.457	312.38
570.03	316.38
570.602	322.38
571.174	324.38
571.747	320.38
572.319	327.38
572.891	321.38
573.463	332.38
574.035	315.38
574.607	315.38
575.179	324.38
575.751	321.38
576.323	323.38
576.894	323.38
577.466	322.38
578.038	321.38
578.609	316.38
579.181	320.38
579.752	323.38
580.323	312.38
580.895	324.38
581.466	316.38
582.037	325.38
582.608	310.38
583.179	328.38
583.75	331.38
584.321	323.38
584.892	326.38
585.463	321.38
586.033	338.38
586.604	338.38
587.175	331.38
587.745	326.38
588.316	350.38
588.886	331.38
589.457	335.38
590.027	344.38
590.597	333.38
591.167	344.38
591.737	338.38
592.308	334.38
592.878	339.38
593.447	327.38
594.017	326.38
594.587	324.38
595.157	315.38
595.727	325.38
596.296	322.38
596.866	321.38
597.435	320.38
598.005	313.38
598.574	314.38
599.143	314.38
599.713	300.38
600.282	317.38
600.851	311.38
601.42	294.38
601.989	304.38
602.558	301.38
603.127	299.38
603.696	286.38
604.265	295.38
604.833	302.38
605.402	288.38
605.971	301.38
606.539	275.38
607.108	283.38
607.676	289.38
608.244	289.38
608.813	301.38
609.381	287.38
609.949	290.38
610.517	287.38
611.085	298.38
611.653	292.38
612.221	294.38
612.789	290.38
613.357	278.38
613.924	297.38
614.492	286.38
615.06	291.38
615.627	284.38
616.195	279.38
616.762	282.38
617.329	274.38
617.897	280.38
618.464	287.38
619.031	266.38
619.598	292.38
620.165	274.38
620.732	284.38
621.299	271.38
621.866	272.38
622.433	268.38
623	270.38
623.566	261.38
624.133	263.38
624.7	260.38
625.266	279.38
625.832	267.38
626.399	271.38
626.965	269.38
627.531	280.38
628.098	268.38
628.664	265.38
629.23	261.38
629.796	259.38
630.362	268.38
630.928	251.38
631.493	254.38
632.059	253.38
632.625	246.38
633.19	256.38
633.756	246.38
634.322	254.38
634.887	249.38
635.452	255.38
636.018	233.38
636.583	249.38
637.148	237.38
637.713	241.38
638.278	233.38
638.843	235.38
639.408	234.38
639.973	219.38
640.538	231.38
641.103	217.38
641.667	225.38
642.232	218.38
642.797	220.38
643.361	216.38
643.926	219.38
644.49	207.38
645.054	214.38
645.619	214.38
646.183	205.38
646.747	201.38
647.311	198.38
647.875	205.38
648.439	203.38
649.003	193.38
649.567	195.38
650.131	191.38
650.694	200.38
651.258	199.38
651.822	186.38
652.385	193.38
652.949	189.38
653.512	188.38
654.075	182.38
654.639	175.38
655.202	188.38
655.765	183.38
656.328	178.38
656.891	171.38
657.454	174.38
658.017	179.38
658.58	180.38
659.143	173.38
659.705	165.38
660.268	173.38
660.83	165.38
661.393	171.38
661.955	165.38
662.518	163.38
663.08	166.38
663.643	160.38
664.205	154.38
664.767	157.38
665.329	152.38
665.891	157.38
666.453	155.38
667.015	155.38
667.577	144.38
668.139	145.38
668.7	142.38
669.262	151.38
669.824	140.38
670.385	145.38
670.947	147.38
671.508	133.38
672.069	140.38
672.631	141.38
673.192	133.38
673.753	135.38
674.314	128.38
674.875	130.38
675.436	126.38
675.997	137.38
676.558	131.38
677.119	131.38
677.679	133.38
678.24	133.38
678.801	123.38
679.361	124.38
679.922	127.38
680.482	125.38
681.042	126.38
681.603	117.38
682.163	129.38
682.723	116.38
683.283	124.38
683.843	120.38
684.403	117.38
684.963	120.38
685.523	113.38
686.083	115.38
686.642	124.38
687.202	112.38
687.762	110.38
688.321	102.38
688.881	105.38
689.44	106.38
690	106.38
690.559	102.38
691.118	100.38
691.677	104.38
692.236	100.38
692.795	100.38
693.354	108.38
693.913	86.38
694.472	99.38
695.031	92.38
695.59	88.38
696.148	89.38
696.707	95.38
697.265	91.38
697.824	84.38
698.382	84.38
698.941	80.38
699.499	88.38
700.057	83.38
700.615	80.38
701.173	87.38
701.731	84.38
702.289	80.38
702.847	76.38
703.405	86.38
703.963	78.38
704.521	69.38
705.078	73.38
705.636	71.38
706.194	68.38
706.751	73.38
707.308	69.38
707.866	70.38
708.423	65.38
708.98	66.38
709.537	76.38
710.095	62.38
710.652	67.38
711.209	70.38
711.765	65.38
712.322	61.38
712.879	61.38
713.436	54.38
713.992	61.38
714.549	59.38
715.106	62.38
715.662	57.38
716.218	61.38
716.775	63.38
717.331	50.38
717.887	58.38
718.443	52.38
719	51.38
719.556	52.38
720.112	53.38
720.667	54.38
721.223	51.38
721.779	51.38
722.335	51.38
722.89	48.38
723.446	44.38
724.002	48.38
724.557	46.38
725.112	43.38
725.668	44.38
726.223	47.38
726.778	42.38
727.333	51.38
727.888	46.38
728.443	40.38
728.998	39.38
729.553	46.38
730.108	42.38
730.663	42.38
731.218	42.38
731.772	43.38
732.327	41.38
732.881	36.38
733.436	37.38
733.99	39.38
734.545	41.38
735.099	32.38
735.653	38.38
736.207	38.38
736.761	33.38
737.315	31.38
737.869	34.38
738.423	43.38
738.977	35.38
739.531	33.38
740.084	38.38
740.638	35.38
741.192	32.38
741.745	33.38
742.299	33.38
742.852	29.38
743.405	33.38
743.959	32.38
744.512	35.38
745.065	32.38
745.618	30.38
746.171	29.38
746.724	33.38
747.277	28.38
747.83	29.38
748.382	25.38
748.935	26.38
749.488	25.38
750.04	25.38
750.593	30.38
751.145	28.38
751.698	24.38
752.25	26.38
752.802	25.38
753.354	25.38
753.906	25.38
754.458	30.38
755.01	23.38
755.562	25.38
756.114	22.38
756.666	21.38
757.218	25.38
757.769	23.38
758.321	17.38
758.873	20.38
759.424	23.38
759.975	18.38
760.527	23.38
761.078	19.38
761.629	22.38
762.181	15.38
762.732	14.38
763.283	18.38
763.834	22.38
764.385	17.38
764.935	19.38
765.486	15.38
766.037	16.38
766.588	19.38
767.138	17.38
767.689	16.38
768.239	13.38
768.79	15.38
769.34	18.38
769.89	17.38
770.44	17.38
770.991	14.38
771.541	17.38
772.091	15.38
772.641	16.38
773.191	15.38
773.74	15.38
774.29	17.38
774.84	16.38
775.39	14.38
775.939	12.38
776.489	13.38
777.038	16.38
777.588	16.38
778.137	12.38
778.686	15.38
779.235	16.38
779.784	13.38
780.334	17.38
780.883	11.38
781.431	12.38
781.98	19.38
782.529	14.38
783.078	15.38
783.627	13.38
784.175	11.38
784.724	13.38
785.272	11.38
785.821	12.38
786.369	12.38
786.917	9.38
787.466	12.38
788.014	13.38
788.562	13.38
789.11	8.38
789.658	11.38
790.206	14.38
790.754	11.38
791.302	7.38
791.849	13.38
792.397	9.38
792.945	7.38
793.492	12.38
794.04	10.38
794.587	13.38
795.134	10.38
795.682	11.38
796.229	8.38
796.776	8.38
797.323	12.38
797.87	5.38
798.417	7.38
798.964	14.38
799.511	4.38
800.058	7.38
800.604	8.38
801.151	8.38
801.698	9.38
802.244	8.38
802.791	5.38
803.337	9.38
803.883	5.38
804.43	8.38
804.976	9.38
805.522	6.38
806.068	6.38
806.614	7.38
807.16	6.38
807.706	8.38
808.252	8.38
808.797	9.38
809.343	-0.62
809.889	8.38
810.434	2.38
810.98	4.38
811.525	4.38
812.071	7.38
812.616	6.38
813.161	4.38
813.706	6.38
814.252	4.38
814.797	6.38
815.342	6.38
815.886	3.38
816.431	6.38
816.976	7.38
817.521	5.38
818.066	5.38
818.61	2.38
819.155	3.38
819.699	6.38
820.244	6.38
820.788	4.38
821.332	6.38
821.876	5.38
822.421	3.38
822.965	5.38
823.509	5.38
824.053	2.38
824.597	0.38
825.14	4.38
825.684	1.38
826.228	7.38
826.771	4.38
827.315	0.38
827.859	3.38
828.402	5.38
828.945	4.38
829.489	4.38
830.032	3.38
830.575	2.38
831.118	3.38
831.661	3.38
832.204	4.38
832.747	3.38
833.29	4.38
833.833	2.38
834.376	2.38
834.918	5.38
835.461	3.38
836.004	6.38
836.546	1.38
837.088	2.38
837.631	5.38
838.173	7.38
838.715	3.38
839.257	4.38
839.8	3.38
840.342	2.38
840.884	2.38
841.425	6.38
841.967	1.38
842.509	1.38
843.051	4.38
843.592	0.38
844.134	6.38
844.676	1.38
845.217	3.38
845.758	3.38
846.3	2.38
846.841	2.38
847.382	5.38
847.923	2.38
848.464	2.38
849.005	1.38
849.546	0.38
850.087	2.38
850.628	1.38
851.169	2.38
851.709	-0.62
852.25	3.38
852.791	3.38
853.331	2.38
853.871	0.38
854.412	2.38
854.952	2.38
855.492	0.38
856.033	1.38
856.573	-4.62
857.113	1.38
857.653	1.38
858.193	-0.62
858.732	0.38
859.272	2.38
859.812	3.38
860.352	1.38
860.891	0.38
861.431	3.38
861.97	4.38
862.509	3.38
863.049	2.38
863.588	-0.62
864.127	6.38
864.666	-0.62
865.205	2.38
865.744	-0.62
866.283	2.38
866.822	3.38
867.361	4.38
867.9	2.38
868.438	-0.62
868.977	5.38
869.516	-0.62
870.054	1.38
870.593	0.38
871.131	3.38
871.669	-0.62
872.207	2.38
872.746	-0.62
873.284	0.38
873.822	3.38
874.36	-1.62
874.898	2.38
875.435	-1.62
875.973	2.38
876.511	3.38
877.048	2.38
877.586	3.38
878.124	2.38
878.661	0.38
879.198	4.38
879.736	-0.62
880.273	4.38
880.81	0.38
881.347	0.38
881.884	-4.62
882.421	0.38
882.958	2.38
883.495	-0.62
884.032	1.38
884.569	0.38
885.105	3.38
885.642	1.38
886.178	3.38
886.715	-0.62
887.251	0.38
887.788	3.38
888.324	2.38
888.86	1.38
889.396	0.38
889.932	2.38
890.468	3.38
891.004	1.38
891.54	-2.62
892.076	-0.62
892.612	0.38
893.147	3.38
893.683	2.38
894.219	1.38
894.754	-2.62
895.29	0.38
895.825	0.38
896.36	-0.62
896.896	0.38
897.431	1.38
897.966	1.38
898.501	-0.62
899.036	2.38
899.571	-2.62
900.106	0.38
900.64	2.38
901.175	-0.62
901.71	-1.62
902.244	-1.62
902.779	-1.62
903.313	0.38
903.848	3.38
904.382	0.38
904.916	-0.62
905.45	1.38
905.985	1.38
906.519	2.38
907.053	2.38
907.587	0.38
908.12	0.38
908.654	-0.62
909.188	2.38
909.722	-1.62
910.255	0.38
910.789	2.38
911.322	0.38
911.856	-1.62
912.389	3.38
912.922	2.38
913.456	2.38
913.989	-0.62
914.522	-0.62
915.055	-0.62
915.588	1.38
916.121	4.38
916.653	0.38
917.186	1.38
917.719	-0.62
918.252	2.38
918.784	0.38
919.317	0.38
919.849	0.38
920.381	-1.62
920.914	1.38
921.446	1.38
921.978	0.38
922.51	2.38
923.042	0.38
923.574	-0.62
924.106	-1.62
924.638	-0.62
925.17	-0.62
925.701	-3.62
926.233	0.38
926.765	-5.62
927.296	2.38
927.828	3.38
928.359	0.38
928.89	-1.62
929.422	-0.62
929.953	1.38
930.484	-0.62
931.015	0.38
931.546	1.38
932.077	-0.62
932.608	2.38
933.138	1.38
933.669	-2.62
934.2	-2.62
934.73	-0.62
935.261	-1.62
