Data from LOOPyPMA-1_QEP046991__14__18-11-23-757.txt Node

Date: Sun May 11 18:11:23 CEST 2025
User: superuser
Spectrometer: QEP04699
Trigger mode: 4
Integration Time (sec): 1.000000E-1
Scans to average: 1
Electric dark correction enabled: true
Nonlinearity correction enabled: false
Boxcar width: 0
XAxis mode: Wavelengths
Number of Pixels in Spectrum: 1044
>>>>>Begin Spectral Data<<<<<
347.57	9.12
348.165	0.12
348.76	-1.88
349.355	-0.88
349.95	-3.88
350.545	-1.88
351.14	-1.88
351.735	-2.88
352.33	2.12
352.924	-2.88
353.519	4.12
354.114	3.12
354.708	0.12
355.303	-2.88
355.897	2.12
356.491	-1.88
357.086	-1.88
357.68	-0.88
358.274	-1.88
358.868	1.12
359.462	-0.88
360.056	1.12
360.65	-1.88
361.244	0.12
361.838	0.12
362.431	-2.88
363.025	-3.88
363.619	1.12
364.212	4.12
364.806	1.12
365.399	5.12
365.993	0.12
366.586	0.12
367.179	-1.88
367.772	-3.88
368.366	0.12
368.959	-3.88
369.552	-2.88
370.145	1.12
370.738	2.12
371.331	-0.88
371.923	-1.88
372.516	-0.88
373.109	2.12
373.701	-3.88
374.294	-3.88
374.887	3.12
375.479	0.12
376.071	1.12
376.664	1.12
377.256	-2.88
377.848	4.12
378.44	-2.88
379.033	-3.88
379.625	-5.88
380.217	-0.88
380.808	3.12
381.4	3.12
381.992	0.12
382.584	2.12
383.176	-0.88
383.767	4.12
384.359	4.12
384.95	-1.88
385.542	-1.88
386.133	0.12
386.725	2.12
387.316	0.12
387.907	3.12
388.498	0.12
389.089	4.12
389.68	1.12
390.271	1.12
390.862	1.12
391.453	1.12
392.044	-0.88
392.635	4.12
393.225	4.12
393.816	-1.88
394.407	1.12
394.997	0.12
395.588	1.12
396.178	-0.88
396.768	0.12
397.359	-0.88
397.949	0.12
398.539	0.12
399.129	5.12
399.719	3.12
400.309	0.12
400.899	0.12
401.489	3.12
402.079	2.12
402.668	2.12
403.258	2.12
403.848	2.12
404.437	-1.88
405.027	4.12
405.616	2.12
406.206	4.12
406.795	0.12
407.384	4.12
407.973	3.12
408.563	2.12
409.152	5.12
409.741	5.12
410.33	3.12
410.919	7.12
411.508	3.12
412.096	8.12
412.685	9.12
413.274	7.12
413.862	5.12
414.451	6.12
415.039	9.12
415.628	8.12
416.216	9.12
416.805	9.12
417.393	7.12
417.981	9.12
418.569	15.12
419.157	10.12
419.745	12.12
420.333	14.12
420.921	17.12
421.509	15.12
422.097	13.12
422.685	13.12
423.272	22.12
423.86	17.12
424.447	25.12
425.035	20.12
425.622	24.12
426.21	19.12
426.797	31.12
427.384	29.12
427.972	37.12
428.559	30.12
429.146	31.12
429.733	40.12
430.32	46.12
430.907	37.12
431.494	51.12
432.08	53.12
432.667	56.12
433.254	64.12
433.84	63.12
434.427	71.12
435.013	87.12
435.6	83.12
436.186	87.12
436.772	98.12
437.359	102.12
437.945	116.12
438.531	128.12
439.117	126.12
439.703	151.12
440.289	160.12
440.875	169.12
441.461	168.12
442.047	193.12
442.632	210.12
443.218	235.12
443.804	263.12
444.389	264.12
444.975	290.12
445.56	298.12
446.145	320.12
446.731	341.12
447.316	382.12
447.901	412.12
448.486	438.12
449.071	464.12
449.656	507.12
450.241	532.12
450.826	588.12
451.411	632.12
451.996	660.12
452.58	705.12
453.165	774.12
453.75	815.12
454.334	875.12
454.919	968.12
455.503	1021.12
456.087	1099.12
456.672	1155.12
457.256	1278.12
457.84	1350.12
458.424	1443.12
459.008	1544.12
459.592	1627.12
460.176	1760.12
460.76	1857.12
461.344	1931.12
461.927	2009.12
462.511	2082.12
463.095	2149.12
463.678	2193.12
464.262	2211.12
464.845	2213.12
465.429	2204.12
466.012	2203.12
466.595	2169.12
467.178	2103.12
467.762	2036.12
468.345	1957.12
468.928	1885.12
469.511	1820.12
470.094	1703.12
470.676	1597.12
471.259	1499.12
471.842	1396.12
472.425	1298.12
473.007	1228.12
473.59	1163.12
474.172	1071.12
474.755	968.12
475.337	935.12
475.919	880.12
476.502	818.12
477.084	767.12
477.666	740.12
478.248	694.12
478.83	653.12
479.412	602.12
479.994	587.12
480.576	562.12
481.157	550.12
481.739	517.12
482.321	481.12
482.902	452.12
483.484	424.12
484.065	411.12
484.647	397.12
485.228	361.12
485.809	336.12
486.391	319.12
486.972	298.12
487.553	279.12
488.134	267.12
488.715	236.12
489.296	229.12
489.877	221.12
490.458	205.12
491.038	184.12
491.619	177.12
492.2	166.12
492.78	170.12
493.361	156.12
493.941	143.12
494.522	138.12
495.102	136.12
495.682	124.12
496.262	122.12
496.843	114.12
497.423	111.12
498.003	110.12
498.583	108.12
499.163	100.12
499.742	113.12
500.322	95.12
500.902	95.12
501.482	96.12
502.061	88.12
502.641	99.12
503.22	93.12
503.8	84.12
504.379	86.12
504.958	77.12
505.538	79.12
506.117	88.12
506.696	77.12
507.275	75.12
507.854	74.12
508.433	75.12
509.012	83.12
509.591	81.12
510.169	78.12
510.748	86.12
511.327	93.12
511.905	82.12
512.484	95.12
513.062	101.12
513.641	100.12
514.219	108.12
514.797	109.12
515.375	114.12
515.954	123.12
516.532	131.12
517.11	137.12
517.688	144.12
518.266	150.12
518.843	155.12
519.421	172.12
519.999	188.12
520.577	183.12
521.154	199.12
521.732	208.12
522.309	220.12
522.887	220.12
523.464	232.12
524.041	243.12
524.619	251.12
525.196	260.12
525.773	253.12
526.35	275.12
526.927	281.12
527.504	274.12
528.081	290.12
528.658	291.12
529.235	294.12
529.811	290.12
530.388	307.12
530.964	312.12
531.541	309.12
532.117	321.12
532.694	314.12
533.27	315.12
533.846	312.12
534.423	306.12
534.999	311.12
535.575	307.12
536.151	306.12
536.727	302.12
537.303	312.12
537.879	292.12
538.455	300.12
539.03	320.12
539.606	289.12
540.182	310.12
540.757	282.12
541.333	298.12
541.908	291.12
542.483	289.12
543.059	288.12
543.634	291.12
544.209	276.12
544.784	282.12
545.359	272.12
545.934	273.12
546.509	267.12
547.084	271.12
547.659	265.12
548.234	264.12
548.808	262.12
549.383	262.12
549.958	263.12
550.532	259.12
551.107	257.12
551.681	260.12
552.255	252.12
552.83	255.12
553.404	255.12
553.978	249.12
554.552	252.12
555.126	247.12
555.7	266.12
556.274	259.12
556.848	261.12
557.422	247.12
557.995	268.12
558.569	253.12
559.143	252.12
559.716	262.12
560.29	259.12
560.863	268.12
561.437	267.12
562.01	277.12
562.583	274.12
563.156	277.12
563.729	284.12
564.302	281.12
564.875	284.12
565.448	290.12
566.021	292.12
566.594	301.12
567.167	310.12
567.74	295.12
568.312	319.12
568.885	320.12
569.457	324.12
570.03	324.12
570.602	310.12
571.174	322.12
571.747	319.12
572.319	332.12
572.891	323.12
573.463	318.12
574.035	321.12
574.607	331.12
575.179	322.12
575.751	328.12
576.323	334.12
576.894	331.12
577.466	329.12
578.038	311.12
578.609	320.12
579.181	332.12
579.752	312.12
580.323	327.12
580.895	324.12
581.466	317.12
582.037	321.12
582.608	322.12
583.179	321.12
583.75	319.12
584.321	338.12
584.892	336.12
585.463	336.12
586.033	336.12
586.604	331.12
587.175	343.12
587.745	342.12
588.316	326.12
588.886	324.12
589.457	337.12
590.027	337.12
590.597	334.12
591.167	338.12
591.737	321.12
592.308	328.12
592.878	328.12
593.447	339.12
594.017	332.12
594.587	325.12
595.157	318.12
595.727	323.12
596.296	331.12
596.866	321.12
597.435	315.12
598.005	312.12
598.574	318.12
599.143	311.12
599.713	313.12
600.282	308.12
600.851	306.12
601.42	303.12
601.989	292.12
602.558	298.12
603.127	302.12
603.696	300.12
604.265	291.12
604.833	296.12
605.402	297.12
605.971	295.12
606.539	300.12
607.108	298.12
607.676	291.12
608.244	285.12
608.813	295.12
609.381	294.12
609.949	282.12
610.517	286.12
611.085	284.12
611.653	293.12
612.221	289.12
612.789	281.12
613.357	274.12
613.924	283.12
614.492	292.12
615.06	275.12
615.627	281.12
616.195	293.12
616.762	280.12
617.329	280.12
617.897	278.12
618.464	287.12
619.031	270.12
619.598	272.12
620.165	283.12
620.732	266.12
621.299	290.12
621.866	277.12
622.433	272.12
623	283.12
623.566	273.12
624.133	262.12
624.7	266.12
625.266	278.12
625.832	265.12
626.399	264.12
626.965	266.12
627.531	252.12
628.098	264.12
628.664	261.12
629.23	269.12
629.796	252.12
630.362	257.12
630.928	260.12
631.493	255.12
632.059	259.12
632.625	258.12
633.19	252.12
633.756	256.12
634.322	253.12
634.887	241.12
635.452	233.12
636.018	242.12
636.583	257.12
637.148	233.12
637.713	232.12
638.278	224.12
638.843	239.12
639.408	231.12
639.973	227.12
640.538	225.12
641.103	244.12
641.667	219.12
642.232	230.12
642.797	220.12
643.361	212.12
643.926	214.12
644.49	210.12
645.054	217.12
645.619	214.12
646.183	210.12
646.747	206.12
647.311	210.12
647.875	214.12
648.439	194.12
649.003	203.12
649.567	202.12
650.131	195.12
650.694	198.12
651.258	195.12
651.822	191.12
652.385	193.12
652.949	194.12
653.512	188.12
654.075	195.12
654.639	184.12
655.202	183.12
655.765	179.12
656.328	188.12
656.891	184.12
657.454	182.12
658.017	182.12
658.58	164.12
659.143	170.12
659.705	165.12
660.268	158.12
660.83	172.12
661.393	164.12
661.955	154.12
662.518	161.12
663.08	163.12
663.643	165.12
664.205	158.12
664.767	161.12
665.329	153.12
665.891	156.12
666.453	154.12
667.015	151.12
667.577	147.12
668.139	137.12
668.7	140.12
669.262	139.12
669.824	142.12
670.385	136.12
670.947	148.12
671.508	132.12
672.069	135.12
672.631	139.12
673.192	138.12
673.753	139.12
674.314	132.12
674.875	142.12
675.436	131.12
675.997	126.12
676.558	134.12
677.119	126.12
677.679	122.12
678.24	134.12
678.801	121.12
679.361	120.12
679.922	120.12
680.482	123.12
681.042	125.12
681.603	119.12
682.163	120.12
682.723	127.12
683.283	119.12
683.843	120.12
684.403	116.12
684.963	121.12
685.523	117.12
686.083	115.12
686.642	115.12
687.202	108.12
687.762	105.12
688.321	104.12
688.881	107.12
689.44	113.12
690	110.12
690.559	98.12
691.118	101.12
691.677	104.12
692.236	96.12
692.795	95.12
693.354	90.12
693.913	90.12
694.472	98.12
695.031	94.12
695.59	92.12
696.148	94.12
696.707	90.12
697.265	87.12
697.824	88.12
698.382	85.12
698.941	87.12
699.499	87.12
700.057	80.12
700.615	79.12
701.173	76.12
701.731	80.12
702.289	68.12
702.847	72.12
703.405	72.12
703.963	75.12
704.521	74.12
705.078	69.12
705.636	70.12
706.194	71.12
706.751	69.12
707.308	70.12
707.866	68.12
708.423	64.12
708.98	67.12
709.537	66.12
710.095	74.12
710.652	64.12
711.209	70.12
711.765	76.12
712.322	66.12
712.879	61.12
713.436	59.12
713.992	59.12
714.549	60.12
715.106	54.12
715.662	56.12
716.218	62.12
716.775	59.12
717.331	61.12
717.887	57.12
718.443	55.12
719	55.12
719.556	55.12
720.112	55.12
720.667	53.12
721.223	55.12
721.779	56.12
722.335	44.12
722.89	42.12
723.446	42.12
724.002	45.12
724.557	48.12
725.112	46.12
725.668	47.12
726.223	45.12
726.778	45.12
727.333	49.12
727.888	39.12
728.443	42.12
728.998	44.12
729.553	40.12
730.108	39.12
730.663	36.12
731.218	37.12
731.772	35.12
732.327	39.12
732.881	40.12
733.436	36.12
733.99	37.12
734.545	36.12
735.099	39.12
735.653	40.12
736.207	35.12
736.761	40.12
737.315	42.12
737.869	40.12
738.423	37.12
738.977	33.12
739.531	41.12
740.084	34.12
740.638	35.12
741.192	32.12
741.745	30.12
742.299	28.12
742.852	24.12
743.405	32.12
743.959	32.12
744.512	31.12
745.065	29.12
745.618	29.12
746.171	26.12
746.724	25.12
747.277	29.12
747.83	25.12
748.382	25.12
748.935	30.12
749.488	27.12
750.04	31.12
750.593	23.12
751.145	23.12
751.698	25.12
752.25	20.12
752.802	26.12
753.354	25.12
753.906	18.12
754.458	21.12
755.01	21.12
755.562	20.12
756.114	23.12
756.666	23.12
757.218	23.12
757.769	21.12
758.321	18.12
758.873	23.12
759.424	20.12
759.975	23.12
760.527	18.12
761.078	21.12
761.629	20.12
762.181	12.12
762.732	20.12
763.283	19.12
763.834	16.12
764.385	21.12
764.935	13.12
765.486	15.12
766.037	21.12
766.588	14.12
767.138	14.12
767.689	13.12
768.239	15.12
768.79	15.12
769.34	14.12
769.89	12.12
770.44	13.12
770.991	20.12
771.541	16.12
772.091	12.12
772.641	15.12
773.191	13.12
773.74	15.12
774.29	12.12
774.84	14.12
775.39	17.12
775.939	14.12
776.489	17.12
777.038	17.12
777.588	16.12
778.137	12.12
778.686	16.12
779.235	17.12
779.784	15.12
780.334	15.12
780.883	13.12
781.431	15.12
781.98	13.12
782.529	15.12
783.078	15.12
783.627	11.12
784.175	13.12
784.724	14.12
785.272	13.12
785.821	8.12
786.369	13.12
786.917	14.12
787.466	11.12
788.014	14.12
788.562	13.12
789.11	11.12
789.658	15.12
790.206	13.12
790.754	12.12
791.302	8.12
791.849	10.12
792.397	11.12
792.945	16.12
793.492	13.12
794.04	11.12
794.587	12.12
795.134	10.12
795.682	11.12
796.229	7.12
796.776	9.12
797.323	11.12
797.87	8.12
798.417	12.12
798.964	7.12
799.511	6.12
800.058	11.12
800.604	11.12
801.151	5.12
801.698	8.12
802.244	8.12
802.791	6.12
803.337	3.12
803.883	4.12
804.43	8.12
804.976	9.12
805.522	6.12
806.068	9.12
806.614	5.12
807.16	6.12
807.706	7.12
808.252	7.12
808.797	2.12
809.343	6.12
809.889	7.12
810.434	6.12
810.98	4.12
811.525	4.12
812.071	9.12
812.616	2.12
813.161	3.12
813.706	8.12
814.252	7.12
814.797	1.12
815.342	4.12
815.886	8.12
816.431	6.12
816.976	4.12
817.521	6.12
818.066	7.12
818.61	4.12
819.155	3.12
819.699	6.12
820.244	4.12
820.788	4.12
821.332	-0.88
821.876	4.12
822.421	5.12
822.965	3.12
823.509	2.12
824.053	2.12
824.597	4.12
825.14	7.12
825.684	1.12
826.228	5.12
826.771	4.12
827.315	5.12
827.859	6.12
828.402	5.12
828.945	4.12
829.489	4.12
830.032	2.12
830.575	2.12
831.118	4.12
831.661	4.12
832.204	0.12
832.747	3.12
833.29	3.12
833.833	6.12
834.376	3.12
834.918	4.12
835.461	5.12
836.004	3.12
836.546	3.12
837.088	2.12
837.631	1.12
838.173	3.12
838.715	6.12
839.257	5.12
839.8	3.12
840.342	5.12
840.884	6.12
841.425	0.12
841.967	2.12
842.509	7.12
843.051	-1.88
843.592	2.12
844.134	4.12
844.676	3.12
845.217	6.12
845.758	3.12
846.3	3.12
846.841	3.12
847.382	1.12
847.923	1.12
848.464	0.12
849.005	5.12
849.546	-1.88
850.087	2.12
850.628	1.12
851.169	1.12
851.709	1.12
852.25	3.12
852.791	3.12
853.331	5.12
853.871	0.12
854.412	1.12
854.952	-0.88
855.492	3.12
856.033	1.12
856.573	-0.88
857.113	5.12
857.653	2.12
858.193	1.12
858.732	2.12
859.272	0.12
859.812	1.12
860.352	0.12
860.891	-2.88
861.431	0.12
861.97	-1.88
862.509	2.12
863.049	0.12
863.588	-0.88
864.127	0.12
864.666	0.12
865.205	-2.88
865.744	2.12
866.283	-0.88
866.822	4.12
867.361	-1.88
867.9	-0.88
868.438	0.12
868.977	1.12
869.516	3.12
870.054	0.12
870.593	1.12
871.131	1.12
871.669	-1.88
872.207	0.12
872.746	3.12
873.284	2.12
873.822	1.12
874.36	1.12
874.898	-0.88
875.435	0.12
875.973	0.12
876.511	0.12
877.048	-3.88
877.586	1.12
878.124	4.12
878.661	0.12
879.198	1.12
879.736	2.12
880.273	0.12
880.81	2.12
881.347	-0.88
881.884	-1.88
882.421	1.12
882.958	0.12
883.495	0.12
884.032	2.12
884.569	4.12
885.105	2.12
885.642	3.12
886.178	1.12
886.715	-0.88
887.251	0.12
887.788	0.12
888.324	1.12
888.86	-1.88
889.396	0.12
889.932	2.12
890.468	-3.88
891.004	0.12
891.54	-1.88
892.076	1.12
892.612	0.12
893.147	2.12
893.683	-0.88
894.219	1.12
894.754	-0.88
895.29	-0.88
895.825	-0.88
896.36	0.12
896.896	0.12
897.431	4.12
897.966	-0.88
898.501	-1.88
899.036	-3.88
899.571	-2.88
900.106	-0.88
900.64	0.12
901.175	0.12
901.71	-0.88
902.244	2.12
902.779	-1.88
903.313	-0.88
903.848	2.12
904.382	1.12
904.916	0.12
905.45	-4.88
905.985	3.12
906.519	0.12
907.053	-2.88
907.587	0.12
908.12	-1.88
908.654	-0.88
909.188	0.12
909.722	4.12
910.255	1.12
910.789	-2.88
911.322	4.12
911.856	-2.88
912.389	-1.88
912.922	2.12
913.456	2.12
913.989	1.12
914.522	4.12
915.055	0.12
915.588	3.12
916.121	1.12
916.653	-1.88
917.186	-0.88
917.719	1.12
918.252	1.12
918.784	1.12
919.317	-0.88
919.849	-0.88
920.381	-3.88
920.914	3.12
921.446	2.12
921.978	-3.88
922.51	-0.88
923.042	-1.88
923.574	0.12
924.106	2.12
924.638	-0.88
925.17	-2.88
925.701	-1.88
926.233	1.12
926.765	-0.88
927.296	-1.88
927.828	-3.88
928.359	-0.88
928.89	-2.88
929.422	1.12
929.953	1.12
930.484	2.12
931.015	-2.88
931.546	3.12
932.077	1.12
932.608	2.12
933.138	-1.88
933.669	-1.88
934.2	-0.88
934.73	-1.88
935.261	-1.88
