Data from LOOPyPMA-1_QEP046991__23__18-11-32-758.txt Node

Date: Sun May 11 18:11:32 CEST 2025
User: superuser
Spectrometer: QEP04699
Trigger mode: 4
Integration Time (sec): 1.000000E-1
Scans to average: 1
Electric dark correction enabled: true
Nonlinearity correction enabled: false
Boxcar width: 0
XAxis mode: Wavelengths
Number of Pixels in Spectrum: 1044
>>>>>Begin Spectral Data<<<<<
347.57	11.75
348.165	0.75
348.76	-2.25
349.355	-1.25
349.95	0.75
350.545	-1.25
351.14	-0.25
351.735	0.75
352.33	-0.25
352.924	0.75
353.519	-1.25
354.114	-1.25
354.708	-2.25
355.303	-2.25
355.897	-1.25
356.491	-2.25
357.086	-0.25
357.68	-3.25
358.274	0.75
358.868	1.75
359.462	0.75
360.056	4.75
360.65	2.75
361.244	0.75
361.838	-0.25
362.431	-0.25
363.025	-0.25
363.619	-1.25
364.212	1.75
364.806	4.75
365.399	3.75
365.993	0.75
366.586	-0.25
367.179	-5.25
367.772	2.75
368.366	-0.25
368.959	0.75
369.552	1.75
370.145	0.75
370.738	-0.25
371.331	2.75
371.923	-0.25
372.516	0.75
373.109	-0.25
373.701	-2.25
374.294	0.75
374.887	0.75
375.479	-1.25
376.071	0.75
376.664	4.75
377.256	3.75
377.848	0.75
378.44	-2.25
379.033	2.75
379.625	-1.25
380.217	-2.25
380.808	1.75
381.4	2.75
381.992	4.75
382.584	-1.25
383.176	2.75
383.767	0.75
384.359	-1.25
384.95	0.75
385.542	3.75
386.133	-1.25
386.725	0.75
387.316	0.75
387.907	-0.25
388.498	2.75
389.089	0.75
389.68	2.75
390.271	0.75
390.862	-0.25
391.453	4.75
392.044	-0.25
392.635	1.75
393.225	1.75
393.816	-0.25
394.407	0.75
394.997	2.75
395.588	1.75
396.178	-1.25
396.768	1.75
397.359	2.75
397.949	-2.25
398.539	4.75
399.129	-2.25
399.719	4.75
400.309	2.75
400.899	1.75
401.489	3.75
402.079	1.75
402.668	2.75
403.258	-0.25
403.848	2.75
404.437	1.75
405.027	2.75
405.616	1.75
406.206	3.75
406.795	3.75
407.384	4.75
407.973	-0.25
408.563	6.75
409.152	6.75
409.741	2.75
410.33	3.75
410.919	0.75
411.508	4.75
412.096	3.75
412.685	6.75
413.274	7.75
413.862	1.75
414.451	5.75
415.039	6.75
415.628	4.75
416.216	7.75
416.805	8.75
417.393	12.75
417.981	8.75
418.569	8.75
419.157	9.75
419.745	13.75
420.333	10.75
420.921	16.75
421.509	15.75
422.097	13.75
422.685	12.75
423.272	17.75
423.86	22.75
424.447	19.75
425.035	20.75
425.622	23.75
426.21	24.75
426.797	31.75
427.384	31.75
427.972	34.75
428.559	41.75
429.146	35.75
429.733	38.75
430.32	39.75
430.907	49.75
431.494	50.75
432.08	51.75
432.667	51.75
433.254	58.75
433.84	66.75
434.427	69.75
435.013	83.75
435.6	81.75
436.186	90.75
436.772	98.75
437.359	100.75
437.945	121.75
438.531	124.75
439.117	131.75
439.703	144.75
440.289	158.75
440.875	169.75
441.461	183.75
442.047	193.75
442.632	208.75
443.218	235.75
443.804	237.75
444.389	256.75
444.975	291.75
445.56	302.75
446.145	313.75
446.731	348.75
447.316	377.75
447.901	412.75
448.486	435.75
449.071	452.75
449.656	486.75
450.241	525.75
450.826	573.75
451.411	607.75
451.996	659.75
452.58	707.75
453.165	744.75
453.75	822.75
454.334	870.75
454.919	942.75
455.503	1009.75
456.087	1084.75
456.672	1168.75
457.256	1265.75
457.84	1334.75
458.424	1418.75
459.008	1541.75
459.592	1625.75
460.176	1749.75
460.76	1836.75
461.344	1953.75
461.927	2002.75
462.511	2062.75
463.095	2153.75
463.678	2150.75
464.262	2197.75
464.845	2197.75
465.429	2216.75
466.012	2194.75
466.595	2152.75
467.178	2090.75
467.762	2032.75
468.345	1967.75
468.928	1892.75
469.511	1783.75
470.094	1686.75
470.676	1588.75
471.259	1485.75
471.842	1416.75
472.425	1303.75
473.007	1238.75
473.59	1114.75
474.172	1077.75
474.755	1000.75
475.337	948.75
475.919	867.75
476.502	815.75
477.084	773.75
477.666	733.75
478.248	696.75
478.83	652.75
479.412	620.75
479.994	597.75
480.576	567.75
481.157	541.75
481.739	505.75
482.321	490.75
482.902	441.75
483.484	432.75
484.065	399.75
484.647	380.75
485.228	353.75
485.809	331.75
486.391	321.75
486.972	306.75
487.553	269.75
488.134	260.75
488.715	240.75
489.296	223.75
489.877	217.75
490.458	202.75
491.038	184.75
491.619	175.75
492.2	171.75
492.78	146.75
493.361	148.75
493.941	138.75
494.522	145.75
495.102	131.75
495.682	131.75
496.262	123.75
496.843	113.75
497.423	120.75
498.003	114.75
498.583	109.75
499.163	94.75
499.742	101.75
500.322	98.75
500.902	99.75
501.482	103.75
502.061	98.75
502.641	91.75
503.22	87.75
503.8	81.75
504.379	79.75
504.958	78.75
505.538	77.75
506.117	83.75
506.696	79.75
507.275	83.75
507.854	78.75
508.433	77.75
509.012	82.75
509.591	77.75
510.169	83.75
510.748	87.75
511.327	91.75
511.905	88.75
512.484	97.75
513.062	98.75
513.641	100.75
514.219	101.75
514.797	114.75
515.375	118.75
515.954	116.75
516.532	120.75
517.11	132.75
517.688	134.75
518.266	153.75
518.843	168.75
519.421	178.75
519.999	180.75
520.577	179.75
521.154	179.75
521.732	205.75
522.309	208.75
522.887	208.75
523.464	235.75
524.041	237.75
524.619	245.75
525.196	262.75
525.773	263.75
526.35	268.75
526.927	274.75
527.504	287.75
528.081	282.75
528.658	303.75
529.235	301.75
529.811	299.75
530.388	299.75
530.964	298.75
531.541	295.75
532.117	304.75
532.694	306.75
533.27	331.75
533.846	306.75
534.423	312.75
534.999	305.75
535.575	305.75
536.151	310.75
536.727	302.75
537.303	298.75
537.879	303.75
538.455	306.75
539.03	305.75
539.606	304.75
540.182	303.75
540.757	290.75
541.333	287.75
541.908	287.75
542.483	276.75
543.059	289.75
543.634	279.75
544.209	280.75
544.784	276.75
545.359	271.75
545.934	273.75
546.509	279.75
547.084	268.75
547.659	268.75
548.234	259.75
548.808	262.75
549.383	262.75
549.958	246.75
550.532	245.75
551.107	250.75
551.681	254.75
552.255	248.75
552.83	247.75
553.404	247.75
553.978	246.75
554.552	245.75
555.126	249.75
555.7	248.75
556.274	249.75
556.848	251.75
557.422	258.75
557.995	254.75
558.569	247.75
559.143	252.75
559.716	263.75
560.29	264.75
560.863	271.75
561.437	269.75
562.01	265.75
562.583	283.75
563.156	278.75
563.729	272.75
564.302	285.75
564.875	296.75
565.448	285.75
566.021	297.75
566.594	292.75
567.167	308.75
567.74	310.75
568.312	307.75
568.885	304.75
569.457	300.75
570.03	311.75
570.602	313.75
571.174	311.75
571.747	314.75
572.319	320.75
572.891	331.75
573.463	307.75
574.035	322.75
574.607	318.75
575.179	312.75
575.751	314.75
576.323	318.75
576.894	317.75
577.466	320.75
578.038	317.75
578.609	325.75
579.181	309.75
579.752	317.75
580.323	316.75
580.895	312.75
581.466	310.75
582.037	307.75
582.608	316.75
583.179	316.75
583.75	310.75
584.321	338.75
584.892	326.75
585.463	329.75
586.033	327.75
586.604	326.75
587.175	343.75
587.745	328.75
588.316	333.75
588.886	328.75
589.457	322.75
590.027	331.75
590.597	326.75
591.167	328.75
591.737	341.75
592.308	328.75
592.878	335.75
593.447	313.75
594.017	321.75
594.587	320.75
595.157	316.75
595.727	321.75
596.296	308.75
596.866	315.75
597.435	321.75
598.005	308.75
598.574	308.75
599.143	302.75
599.713	308.75
600.282	303.75
600.851	292.75
601.42	300.75
601.989	291.75
602.558	296.75
603.127	301.75
603.696	314.75
604.265	280.75
604.833	289.75
605.402	293.75
605.971	294.75
606.539	296.75
607.108	294.75
607.676	285.75
608.244	291.75
608.813	290.75
609.381	289.75
609.949	291.75
610.517	289.75
611.085	288.75
611.653	268.75
612.221	288.75
612.789	288.75
613.357	275.75
613.924	286.75
614.492	289.75
615.06	281.75
615.627	289.75
616.195	275.75
616.762	278.75
617.329	271.75
617.897	277.75
618.464	274.75
619.031	270.75
619.598	279.75
620.165	273.75
620.732	271.75
621.299	273.75
621.866	267.75
622.433	274.75
623	281.75
623.566	260.75
624.133	248.75
624.7	263.75
625.266	267.75
625.832	255.75
626.399	260.75
626.965	267.75
627.531	254.75
628.098	266.75
628.664	253.75
629.23	263.75
629.796	253.75
630.362	252.75
630.928	244.75
631.493	254.75
632.059	256.75
632.625	245.75
633.19	247.75
633.756	239.75
634.322	251.75
634.887	255.75
635.452	244.75
636.018	241.75
636.583	229.75
637.148	233.75
637.713	223.75
638.278	224.75
638.843	219.75
639.408	232.75
639.973	236.75
640.538	226.75
641.103	211.75
641.667	214.75
642.232	221.75
642.797	220.75
643.361	216.75
643.926	206.75
644.49	221.75
645.054	203.75
645.619	203.75
646.183	196.75
646.747	193.75
647.311	209.75
647.875	211.75
648.439	196.75
649.003	205.75
649.567	192.75
650.131	192.75
650.694	201.75
651.258	194.75
651.822	201.75
652.385	183.75
652.949	192.75
653.512	186.75
654.075	185.75
654.639	180.75
655.202	179.75
655.765	174.75
656.328	178.75
656.891	174.75
657.454	177.75
658.017	168.75
658.58	159.75
659.143	170.75
659.705	154.75
660.268	171.75
660.83	166.75
661.393	168.75
661.955	161.75
662.518	159.75
663.08	151.75
663.643	150.75
664.205	156.75
664.767	145.75
665.329	155.75
665.891	148.75
666.453	145.75
667.015	151.75
667.577	145.75
668.139	144.75
668.7	140.75
669.262	139.75
669.824	133.75
670.385	136.75
670.947	143.75
671.508	137.75
672.069	133.75
672.631	128.75
673.192	129.75
673.753	136.75
674.314	139.75
674.875	135.75
675.436	134.75
675.997	123.75
676.558	128.75
677.119	125.75
677.679	129.75
678.24	125.75
678.801	123.75
679.361	122.75
679.922	120.75
680.482	119.75
681.042	115.75
681.603	114.75
682.163	117.75
682.723	124.75
683.283	120.75
683.843	112.75
684.403	122.75
684.963	114.75
685.523	120.75
686.083	116.75
686.642	111.75
687.202	109.75
687.762	111.75
688.321	105.75
688.881	117.75
689.44	102.75
690	107.75
690.559	95.75
691.118	106.75
691.677	89.75
692.236	88.75
692.795	99.75
693.354	91.75
693.913	104.75
694.472	85.75
695.031	92.75
695.59	97.75
696.148	84.75
696.707	85.75
697.265	83.75
697.824	85.75
698.382	85.75
698.941	86.75
699.499	85.75
700.057	86.75
700.615	86.75
701.173	77.75
701.731	80.75
702.289	79.75
702.847	77.75
703.405	79.75
703.963	83.75
704.521	76.75
705.078	73.75
705.636	75.75
706.194	78.75
706.751	72.75
707.308	64.75
707.866	73.75
708.423	64.75
708.98	71.75
709.537	65.75
710.095	63.75
710.652	68.75
711.209	66.75
711.765	62.75
712.322	64.75
712.879	58.75
713.436	60.75
713.992	59.75
714.549	60.75
715.106	52.75
715.662	59.75
716.218	61.75
716.775	57.75
717.331	52.75
717.887	56.75
718.443	56.75
719	50.75
719.556	54.75
720.112	48.75
720.667	51.75
721.223	45.75
721.779	52.75
722.335	49.75
722.89	45.75
723.446	40.75
724.002	45.75
724.557	43.75
725.112	48.75
725.668	44.75
726.223	49.75
726.778	44.75
727.333	50.75
727.888	40.75
728.443	39.75
728.998	43.75
729.553	39.75
730.108	37.75
730.663	45.75
731.218	34.75
731.772	39.75
732.327	37.75
732.881	40.75
733.436	42.75
733.99	35.75
734.545	35.75
735.099	34.75
735.653	35.75
736.207	35.75
736.761	35.75
737.315	35.75
737.869	33.75
738.423	28.75
738.977	31.75
739.531	30.75
740.084	35.75
740.638	30.75
741.192	32.75
741.745	32.75
742.299	27.75
742.852	27.75
743.405	28.75
743.959	26.75
744.512	29.75
745.065	28.75
745.618	25.75
746.171	29.75
746.724	26.75
747.277	28.75
747.83	27.75
748.382	27.75
748.935	31.75
749.488	24.75
750.04	29.75
750.593	25.75
751.145	25.75
751.698	22.75
752.25	24.75
752.802	27.75
753.354	27.75
753.906	25.75
754.458	24.75
755.01	20.75
755.562	24.75
756.114	26.75
756.666	17.75
757.218	21.75
757.769	22.75
758.321	18.75
758.873	19.75
759.424	22.75
759.975	15.75
760.527	20.75
761.078	18.75
761.629	22.75
762.181	26.75
762.732	20.75
763.283	18.75
763.834	17.75
764.385	24.75
764.935	18.75
765.486	16.75
766.037	20.75
766.588	18.75
767.138	12.75
767.689	13.75
768.239	14.75
768.79	21.75
769.34	12.75
769.89	14.75
770.44	18.75
770.991	16.75
771.541	14.75
772.091	16.75
772.641	14.75
773.191	13.75
773.74	14.75
774.29	10.75
774.84	13.75
775.39	14.75
775.939	17.75
776.489	15.75
777.038	9.75
777.588	15.75
778.137	13.75
778.686	14.75
779.235	18.75
779.784	13.75
780.334	15.75
780.883	8.75
781.431	10.75
781.98	17.75
782.529	12.75
783.078	7.75
783.627	11.75
784.175	8.75
784.724	14.75
785.272	9.75
785.821	12.75
786.369	14.75
786.917	11.75
787.466	8.75
788.014	12.75
788.562	10.75
789.11	6.75
789.658	9.75
790.206	12.75
790.754	14.75
791.302	13.75
791.849	8.75
792.397	13.75
792.945	6.75
793.492	9.75
794.04	7.75
794.587	8.75
795.134	10.75
795.682	10.75
796.229	8.75
796.776	5.75
797.323	10.75
797.87	6.75
798.417	7.75
798.964	11.75
799.511	11.75
800.058	11.75
800.604	6.75
801.151	11.75
801.698	6.75
802.244	3.75
802.791	9.75
803.337	4.75
803.883	10.75
804.43	6.75
804.976	7.75
805.522	9.75
806.068	6.75
806.614	4.75
807.16	8.75
807.706	8.75
808.252	8.75
808.797	8.75
809.343	8.75
809.889	5.75
810.434	7.75
810.98	5.75
811.525	6.75
812.071	3.75
812.616	6.75
813.161	5.75
813.706	9.75
814.252	4.75
814.797	7.75
815.342	5.75
815.886	9.75
816.431	8.75
816.976	3.75
817.521	5.75
818.066	3.75
818.61	4.75
819.155	3.75
819.699	7.75
820.244	7.75
820.788	4.75
821.332	-0.25
821.876	3.75
822.421	5.75
822.965	5.75
823.509	2.75
824.053	2.75
824.597	5.75
825.14	6.75
825.684	8.75
826.228	6.75
826.771	4.75
827.315	0.75
827.859	6.75
828.402	4.75
828.945	2.75
829.489	3.75
830.032	1.75
830.575	1.75
831.118	1.75
831.661	3.75
832.204	0.75
832.747	5.75
833.29	4.75
833.833	-0.25
834.376	3.75
834.918	4.75
835.461	4.75
836.004	3.75
836.546	-1.25
837.088	3.75
837.631	5.75
838.173	3.75
838.715	5.75
839.257	3.75
839.8	1.75
840.342	4.75
840.884	-1.25
841.425	2.75
841.967	0.75
842.509	2.75
843.051	1.75
843.592	2.75
844.134	2.75
844.676	5.75
845.217	3.75
845.758	1.75
846.3	2.75
846.841	0.75
847.382	1.75
847.923	4.75
848.464	2.75
849.005	5.75
849.546	1.75
850.087	3.75
850.628	-1.25
851.169	2.75
851.709	0.75
852.25	1.75
852.791	-1.25
853.331	2.75
853.871	-0.25
854.412	-0.25
854.952	-3.25
855.492	1.75
856.033	3.75
856.573	-2.25
857.113	3.75
857.653	1.75
858.193	-0.25
858.732	2.75
859.272	3.75
859.812	7.75
860.352	2.75
860.891	2.75
861.431	3.75
861.97	3.75
862.509	2.75
863.049	0.75
863.588	3.75
864.127	-0.25
864.666	3.75
865.205	-1.25
865.744	5.75
866.283	-0.25
866.822	2.75
867.361	0.75
867.9	4.75
868.438	-0.25
868.977	3.75
869.516	-1.25
870.054	1.75
870.593	0.75
871.131	1.75
871.669	0.75
872.207	0.75
872.746	0.75
873.284	0.75
873.822	0.75
874.36	-0.25
874.898	-0.25
875.435	-1.25
875.973	3.75
876.511	2.75
877.048	3.75
877.586	3.75
878.124	0.75
878.661	-0.25
879.198	5.75
879.736	5.75
880.273	3.75
880.81	3.75
881.347	4.75
881.884	-1.25
882.421	3.75
882.958	1.75
883.495	-0.25
884.032	2.75
884.569	0.75
885.105	0.75
885.642	2.75
886.178	1.75
886.715	-0.25
887.251	0.75
887.788	3.75
888.324	-3.25
888.86	-0.25
889.396	-0.25
889.932	1.75
890.468	-2.25
891.004	-1.25
891.54	6.75
892.076	-0.25
892.612	3.75
893.147	-2.25
893.683	-1.25
894.219	2.75
894.754	2.75
895.29	-0.25
895.825	0.75
896.36	-0.25
896.896	0.75
897.431	2.75
897.966	1.75
898.501	-0.25
899.036	1.75
899.571	0.75
900.106	0.75
900.64	0.75
901.175	-3.25
901.71	-2.25
902.244	0.75
902.779	-0.25
903.313	2.75
903.848	-1.25
904.382	1.75
904.916	0.75
905.45	5.75
905.985	1.75
906.519	-0.25
907.053	-0.25
907.587	-0.25
908.12	-2.25
908.654	0.75
909.188	-0.25
909.722	4.75
910.255	0.75
910.789	1.75
911.322	7.75
911.856	3.75
912.389	3.75
912.922	-2.25
913.456	0.75
913.989	-0.25
914.522	-1.25
915.055	1.75
915.588	-2.25
916.121	3.75
916.653	-3.25
917.186	1.75
917.719	1.75
918.252	0.75
918.784	3.75
919.317	-2.25
919.849	1.75
920.381	-1.25
920.914	0.75
921.446	0.75
921.978	-1.25
922.51	-3.25
923.042	1.75
923.574	-1.25
924.106	-0.25
924.638	2.75
925.17	2.75
925.701	-1.25
926.233	1.75
926.765	-0.25
927.296	4.75
927.828	1.75
928.359	3.75
928.89	-3.25
929.422	-1.25
929.953	-2.25
930.484	0.75
931.015	1.75
931.546	-0.25
932.077	-1.25
932.608	-1.25
933.138	-0.25
933.669	-1.25
934.2	-2.25
934.73	-1.25
935.261	-4.25
