Data from LOOPyPMA-1_QEP046991__44__18-11-53-758.txt Node

Date: Sun May 11 18:11:53 CEST 2025
User: superuser
Spectrometer: QEP04699
Trigger mode: 4
Integration Time (sec): 1.000000E-1
Scans to average: 1
Electric dark correction enabled: true
Nonlinearity correction enabled: false
Boxcar width: 0
XAxis mode: Wavelengths
Number of Pixels in Spectrum: 1044
>>>>>Begin Spectral Data<<<<<
347.57	12.62
348.165	1.62
348.76	-4.38
349.355	-1.38
349.95	-0.38
350.545	-2.38
351.14	1.62
351.735	-1.38
352.33	-0.38
352.924	-2.38
353.519	2.62
354.114	1.62
354.708	-1.38
355.303	-0.38
355.897	-2.38
356.491	-0.38
357.086	-2.38
357.68	-1.38
358.274	-1.38
358.868	1.62
359.462	1.62
360.056	-0.38
360.65	-0.38
361.244	-2.38
361.838	1.62
362.431	-1.38
363.025	-2.38
363.619	-1.38
364.212	1.62
364.806	-0.38
365.399	-4.38
365.993	2.62
366.586	0.62
367.179	3.62
367.772	-4.38
368.366	1.62
368.959	-0.38
369.552	-2.38
370.145	-0.38
370.738	-0.38
371.331	0.62
371.923	1.62
372.516	-0.38
373.109	-2.38
373.701	-0.38
374.294	1.62
374.887	-0.38
375.479	-2.38
376.071	-1.38
376.664	1.62
377.256	1.62
377.848	-1.38
378.44	0.62
379.033	-1.38
379.625	-1.38
380.217	1.62
380.808	-0.38
381.4	-0.38
381.992	5.62
382.584	2.62
383.176	-2.38
383.767	-1.38
384.359	2.62
384.95	-5.38
385.542	-2.38
386.133	3.62
386.725	1.62
387.316	-0.38
387.907	2.62
388.498	-3.38
389.089	5.62
389.68	-1.38
390.271	2.62
390.862	3.62
391.453	0.62
392.044	2.62
392.635	0.62
393.225	1.62
393.816	-3.38
394.407	-1.38
394.997	-3.38
395.588	1.62
396.178	2.62
396.768	-2.38
397.359	3.62
397.949	0.62
398.539	0.62
399.129	-0.38
399.719	1.62
400.309	0.62
400.899	-0.38
401.489	0.62
402.079	1.62
402.668	5.62
403.258	-0.38
403.848	0.62
404.437	-2.38
405.027	-1.38
405.616	-0.38
406.206	2.62
406.795	-0.38
407.384	4.62
407.973	2.62
408.563	4.62
409.152	1.62
409.741	5.62
410.33	0.62
410.919	1.62
411.508	6.62
412.096	6.62
412.685	-0.38
413.274	8.62
413.862	1.62
414.451	6.62
415.039	6.62
415.628	8.62
416.216	6.62
416.805	6.62
417.393	12.62
417.981	13.62
418.569	10.62
419.157	15.62
419.745	9.62
420.333	12.62
420.921	13.62
421.509	13.62
422.097	17.62
422.685	16.62
423.272	18.62
423.86	15.62
424.447	20.62
425.035	22.62
425.622	26.62
426.21	26.62
426.797	23.62
427.384	32.62
427.972	31.62
428.559	35.62
429.146	37.62
429.733	37.62
430.32	41.62
430.907	45.62
431.494	50.62
432.08	44.62
432.667	55.62
433.254	64.62
433.84	65.62
434.427	71.62
435.013	76.62
435.6	82.62
436.186	91.62
436.772	103.62
437.359	103.62
437.945	121.62
438.531	117.62
439.117	133.62
439.703	144.62
440.289	157.62
440.875	171.62
441.461	186.62
442.047	197.62
442.632	217.62
443.218	236.62
443.804	248.62
444.389	277.62
444.975	284.62
445.56	314.62
446.145	323.62
446.731	347.62
447.316	391.62
447.901	408.62
448.486	436.62
449.071	472.62
449.656	503.62
450.241	546.62
450.826	582.62
451.411	615.62
451.996	651.62
452.58	722.62
453.165	781.62
453.75	811.62
454.334	899.62
454.919	947.62
455.503	1043.62
456.087	1123.62
456.672	1228.62
457.256	1317.62
457.84	1413.62
458.424	1479.62
459.008	1601.62
459.592	1711.62
460.176	1796.62
460.76	1879.62
461.344	2005.62
461.927	2056.62
462.511	2128.62
463.095	2198.62
463.678	2243.62
464.262	2285.62
464.845	2245.62
465.429	2308.62
466.012	2280.62
466.595	2238.62
467.178	2198.62
467.762	2102.62
468.345	2058.62
468.928	1944.62
469.511	1864.62
470.094	1765.62
470.676	1693.62
471.259	1541.62
471.842	1452.62
472.425	1347.62
473.007	1270.62
473.59	1173.62
474.172	1121.62
474.755	1030.62
475.337	980.62
475.919	898.62
476.502	852.62
477.084	810.62
477.666	760.62
478.248	726.62
478.83	707.62
479.412	655.62
479.994	616.62
480.576	598.62
481.157	565.62
481.739	524.62
482.321	514.62
482.902	476.62
483.484	469.62
484.065	449.62
484.647	407.62
485.228	394.62
485.809	361.62
486.391	331.62
486.972	313.62
487.553	296.62
488.134	280.62
488.715	256.62
489.296	237.62
489.877	231.62
490.458	227.62
491.038	193.62
491.619	181.62
492.2	174.62
492.78	161.62
493.361	168.62
493.941	152.62
494.522	146.62
495.102	133.62
495.682	133.62
496.262	137.62
496.843	126.62
497.423	123.62
498.003	123.62
498.583	110.62
499.163	115.62
499.742	110.62
500.322	109.62
500.902	101.62
501.482	103.62
502.061	91.62
502.641	96.62
503.22	80.62
503.8	87.62
504.379	88.62
504.958	85.62
505.538	86.62
506.117	85.62
506.696	79.62
507.275	86.62
507.854	85.62
508.433	79.62
509.012	75.62
509.591	74.62
510.169	79.62
510.748	78.62
511.327	82.62
511.905	80.62
512.484	88.62
513.062	89.62
513.641	96.62
514.219	92.62
514.797	107.62
515.375	113.62
515.954	118.62
516.532	120.62
517.11	125.62
517.688	135.62
518.266	142.62
518.843	137.62
519.421	157.62
519.999	159.62
520.577	172.62
521.154	179.62
521.732	184.62
522.309	199.62
522.887	204.62
523.464	222.62
524.041	221.62
524.619	234.62
525.196	255.62
525.773	240.62
526.35	246.62
526.927	253.62
527.504	264.62
528.081	264.62
528.658	273.62
529.235	271.62
529.811	271.62
530.388	282.62
530.964	280.62
531.541	285.62
532.117	287.62
532.694	288.62
533.27	285.62
533.846	289.62
534.423	282.62
534.999	296.62
535.575	285.62
536.151	283.62
536.727	277.62
537.303	283.62
537.879	278.62
538.455	266.62
539.03	278.62
539.606	276.62
540.182	258.62
540.757	270.62
541.333	280.62
541.908	260.62
542.483	265.62
543.059	269.62
543.634	248.62
544.209	264.62
544.784	263.62
545.359	256.62
545.934	251.62
546.509	253.62
547.084	234.62
547.659	241.62
548.234	242.62
548.808	224.62
549.383	240.62
549.958	231.62
550.532	234.62
551.107	226.62
551.681	228.62
552.255	230.62
552.83	217.62
553.404	222.62
553.978	224.62
554.552	223.62
555.126	221.62
555.7	220.62
556.274	232.62
556.848	225.62
557.422	232.62
557.995	234.62
558.569	231.62
559.143	232.62
559.716	232.62
560.29	240.62
560.863	243.62
561.437	247.62
562.01	241.62
562.583	251.62
563.156	251.62
563.729	262.62
564.302	256.62
564.875	254.62
565.448	266.62
566.021	271.62
566.594	277.62
567.167	262.62
567.74	280.62
568.312	271.62
568.885	287.62
569.457	290.62
570.03	283.62
570.602	297.62
571.174	296.62
571.747	299.62
572.319	287.62
572.891	287.62
573.463	287.62
574.035	297.62
574.607	277.62
575.179	294.62
575.751	288.62
576.323	287.62
576.894	287.62
577.466	294.62
578.038	288.62
578.609	285.62
579.181	299.62
579.752	292.62
580.323	290.62
580.895	290.62
581.466	283.62
582.037	294.62
582.608	290.62
583.179	303.62
583.75	290.62
584.321	297.62
584.892	289.62
585.463	296.62
586.033	289.62
586.604	298.62
587.175	303.62
587.745	302.62
588.316	296.62
588.886	301.62
589.457	300.62
590.027	293.62
590.597	299.62
591.167	286.62
591.737	294.62
592.308	295.62
592.878	286.62
593.447	293.62
594.017	298.62
594.587	285.62
595.157	285.62
595.727	283.62
596.296	284.62
596.866	291.62
597.435	276.62
598.005	279.62
598.574	267.62
599.143	264.62
599.713	277.62
600.282	272.62
600.851	265.62
601.42	274.62
601.989	272.62
602.558	276.62
603.127	267.62
603.696	258.62
604.265	264.62
604.833	269.62
605.402	264.62
605.971	250.62
606.539	268.62
607.108	266.62
607.676	263.62
608.244	262.62
608.813	251.62
609.381	257.62
609.949	258.62
610.517	249.62
611.085	270.62
611.653	245.62
612.221	265.62
612.789	260.62
613.357	258.62
613.924	256.62
614.492	256.62
615.06	251.62
615.627	257.62
616.195	249.62
616.762	247.62
617.329	244.62
617.897	245.62
618.464	249.62
619.031	247.62
619.598	254.62
620.165	250.62
620.732	246.62
621.299	249.62
621.866	235.62
622.433	234.62
623	247.62
623.566	249.62
624.133	243.62
624.7	243.62
625.266	245.62
625.832	245.62
626.399	237.62
626.965	233.62
627.531	243.62
628.098	244.62
628.664	236.62
629.23	230.62
629.796	227.62
630.362	222.62
630.928	222.62
631.493	215.62
632.059	227.62
632.625	226.62
633.19	217.62
633.756	220.62
634.322	222.62
634.887	221.62
635.452	218.62
636.018	213.62
636.583	217.62
637.148	216.62
637.713	213.62
638.278	212.62
638.843	200.62
639.408	217.62
639.973	202.62
640.538	196.62
641.103	207.62
641.667	201.62
642.232	196.62
642.797	191.62
643.361	194.62
643.926	205.62
644.49	188.62
645.054	186.62
645.619	187.62
646.183	182.62
646.747	185.62
647.311	182.62
647.875	187.62
648.439	176.62
649.003	174.62
649.567	176.62
650.131	175.62
650.694	172.62
651.258	174.62
651.822	168.62
652.385	168.62
652.949	174.62
653.512	167.62
654.075	156.62
654.639	161.62
655.202	166.62
655.765	152.62
656.328	154.62
656.891	151.62
657.454	147.62
658.017	148.62
658.58	155.62
659.143	145.62
659.705	139.62
660.268	150.62
660.83	149.62
661.393	153.62
661.955	143.62
662.518	143.62
663.08	143.62
663.643	139.62
664.205	135.62
664.767	133.62
665.329	143.62
665.891	132.62
666.453	130.62
667.015	128.62
667.577	131.62
668.139	128.62
668.7	128.62
669.262	131.62
669.824	132.62
670.385	126.62
670.947	130.62
671.508	121.62
672.069	128.62
672.631	125.62
673.192	117.62
673.753	123.62
674.314	115.62
674.875	127.62
675.436	108.62
675.997	108.62
676.558	112.62
677.119	111.62
677.679	103.62
678.24	115.62
678.801	116.62
679.361	111.62
679.922	112.62
680.482	111.62
681.042	111.62
681.603	111.62
682.163	115.62
682.723	108.62
683.283	108.62
683.843	105.62
684.403	105.62
684.963	99.62
685.523	108.62
686.083	90.62
686.642	100.62
687.202	95.62
687.762	96.62
688.321	94.62
688.881	93.62
689.44	85.62
690	97.62
690.559	92.62
691.118	82.62
691.677	86.62
692.236	94.62
692.795	90.62
693.354	75.62
693.913	87.62
694.472	88.62
695.031	82.62
695.59	79.62
696.148	81.62
696.707	78.62
697.265	75.62
697.824	78.62
698.382	70.62
698.941	68.62
699.499	80.62
700.057	77.62
700.615	72.62
701.173	70.62
701.731	72.62
702.289	68.62
702.847	70.62
703.405	73.62
703.963	69.62
704.521	64.62
705.078	63.62
705.636	70.62
706.194	60.62
706.751	66.62
707.308	64.62
707.866	60.62
708.423	65.62
708.98	57.62
709.537	58.62
710.095	68.62
710.652	64.62
711.209	60.62
711.765	55.62
712.322	57.62
712.879	53.62
713.436	53.62
713.992	56.62
714.549	57.62
715.106	51.62
715.662	46.62
716.218	46.62
716.775	50.62
717.331	50.62
717.887	46.62
718.443	48.62
719	44.62
719.556	51.62
720.112	51.62
720.667	49.62
721.223	43.62
721.779	47.62
722.335	45.62
722.89	39.62
723.446	40.62
724.002	41.62
724.557	37.62
725.112	39.62
725.668	41.62
726.223	36.62
726.778	43.62
727.333	38.62
727.888	40.62
728.443	36.62
728.998	34.62
729.553	33.62
730.108	34.62
730.663	33.62
731.218	28.62
731.772	34.62
732.327	37.62
732.881	35.62
733.436	36.62
733.99	30.62
734.545	35.62
735.099	27.62
735.653	29.62
736.207	31.62
736.761	30.62
737.315	30.62
737.869	29.62
738.423	29.62
738.977	22.62
739.531	27.62
740.084	27.62
740.638	27.62
741.192	34.62
741.745	34.62
742.299	23.62
742.852	26.62
743.405	32.62
743.959	27.62
744.512	22.62
745.065	26.62
745.618	25.62
746.171	28.62
746.724	24.62
747.277	23.62
747.83	27.62
748.382	18.62
748.935	28.62
749.488	21.62
750.04	21.62
750.593	19.62
751.145	25.62
751.698	18.62
752.25	21.62
752.802	23.62
753.354	24.62
753.906	20.62
754.458	22.62
755.01	21.62
755.562	21.62
756.114	23.62
756.666	17.62
757.218	19.62
757.769	19.62
758.321	19.62
758.873	19.62
759.424	17.62
759.975	18.62
760.527	16.62
761.078	17.62
761.629	17.62
762.181	12.62
762.732	17.62
763.283	16.62
763.834	20.62
764.385	19.62
764.935	17.62
765.486	14.62
766.037	16.62
766.588	16.62
767.138	14.62
767.689	14.62
768.239	13.62
768.79	12.62
769.34	7.62
769.89	13.62
770.44	11.62
770.991	17.62
771.541	11.62
772.091	14.62
772.641	15.62
773.191	15.62
773.74	12.62
774.29	14.62
774.84	15.62
775.39	13.62
775.939	12.62
776.489	10.62
777.038	15.62
777.588	14.62
778.137	13.62
778.686	13.62
779.235	13.62
779.784	8.62
780.334	12.62
780.883	13.62
781.431	7.62
781.98	13.62
782.529	10.62
783.078	11.62
783.627	10.62
784.175	9.62
784.724	9.62
785.272	9.62
785.821	10.62
786.369	15.62
786.917	8.62
787.466	6.62
788.014	4.62
788.562	11.62
789.11	14.62
789.658	7.62
790.206	12.62
790.754	8.62
791.302	10.62
791.849	7.62
792.397	9.62
792.945	10.62
793.492	6.62
794.04	9.62
794.587	7.62
795.134	6.62
795.682	6.62
796.229	7.62
796.776	7.62
797.323	4.62
797.87	7.62
798.417	5.62
798.964	4.62
799.511	7.62
800.058	4.62
800.604	6.62
801.151	5.62
801.698	7.62
802.244	6.62
802.791	3.62
803.337	8.62
803.883	5.62
804.43	11.62
804.976	7.62
805.522	5.62
806.068	4.62
806.614	4.62
807.16	3.62
807.706	8.62
808.252	4.62
808.797	2.62
809.343	4.62
809.889	7.62
810.434	6.62
810.98	4.62
811.525	2.62
812.071	4.62
812.616	4.62
813.161	1.62
813.706	1.62
814.252	0.62
814.797	6.62
815.342	5.62
815.886	6.62
816.431	4.62
816.976	3.62
817.521	2.62
818.066	0.62
818.61	1.62
819.155	7.62
819.699	0.62
820.244	6.62
820.788	4.62
821.332	4.62
821.876	4.62
822.421	5.62
822.965	-1.38
823.509	3.62
824.053	5.62
824.597	3.62
825.14	4.62
825.684	1.62
826.228	4.62
826.771	4.62
827.315	1.62
827.859	1.62
828.402	3.62
828.945	2.62
829.489	6.62
830.032	1.62
830.575	5.62
831.118	-3.38
831.661	1.62
832.204	3.62
832.747	0.62
833.29	5.62
833.833	0.62
834.376	1.62
834.918	0.62
835.461	0.62
836.004	-0.38
836.546	1.62
837.088	-0.38
837.631	-0.38
838.173	2.62
838.715	3.62
839.257	3.62
839.8	-0.38
840.342	4.62
840.884	4.62
841.425	0.62
841.967	0.62
842.509	0.62
843.051	-0.38
843.592	-0.38
844.134	-0.38
844.676	1.62
845.217	3.62
845.758	2.62
846.3	-4.38
846.841	1.62
847.382	-0.38
847.923	1.62
848.464	2.62
849.005	0.62
849.546	-0.38
850.087	1.62
850.628	3.62
851.169	-1.38
851.709	-0.38
852.25	2.62
852.791	3.62
853.331	-2.38
853.871	-0.38
854.412	-0.38
854.952	0.62
855.492	0.62
856.033	0.62
856.573	-1.38
857.113	4.62
857.653	4.62
858.193	4.62
858.732	-0.38
859.272	0.62
859.812	-3.38
860.352	-1.38
860.891	-1.38
861.431	1.62
861.97	2.62
862.509	-1.38
863.049	-2.38
863.588	2.62
864.127	0.62
864.666	0.62
865.205	1.62
865.744	2.62
866.283	-1.38
866.822	-3.38
867.361	0.62
867.9	-1.38
868.438	-0.38
868.977	1.62
869.516	-0.38
870.054	-2.38
870.593	1.62
871.131	0.62
871.669	-2.38
872.207	0.62
872.746	-3.38
873.284	3.62
873.822	2.62
874.36	1.62
874.898	-0.38
875.435	-0.38
875.973	-1.38
876.511	-1.38
877.048	-0.38
877.586	-1.38
878.124	1.62
878.661	0.62
879.198	-2.38
879.736	-0.38
880.273	-0.38
880.81	-3.38
881.347	-0.38
881.884	-1.38
882.421	-2.38
882.958	-2.38
883.495	4.62
884.032	1.62
884.569	-1.38
885.105	-1.38
885.642	0.62
886.178	-0.38
886.715	-1.38
887.251	-3.38
887.788	1.62
888.324	-0.38
888.86	0.62
889.396	0.62
889.932	0.62
890.468	-1.38
891.004	-0.38
891.54	-2.38
892.076	1.62
892.612	-0.38
893.147	-0.38
893.683	-1.38
894.219	3.62
894.754	1.62
895.29	-1.38
895.825	-0.38
896.36	0.62
896.896	1.62
897.431	1.62
897.966	-0.38
898.501	-0.38
899.036	-0.38
899.571	0.62
900.106	0.62
900.64	2.62
901.175	0.62
901.71	-4.38
902.244	3.62
902.779	-0.38
903.313	-0.38
903.848	-0.38
904.382	-0.38
904.916	-1.38
905.45	-0.38
905.985	-0.38
906.519	-0.38
907.053	-4.38
907.587	0.62
908.12	2.62
908.654	-0.38
909.188	-1.38
909.722	-0.38
910.255	-1.38
910.789	-1.38
911.322	-3.38
911.856	-0.38
912.389	0.62
912.922	-1.38
913.456	-2.38
913.989	3.62
914.522	-0.38
915.055	0.62
915.588	-3.38
916.121	-1.38
916.653	1.62
917.186	0.62
917.719	-0.38
918.252	-1.38
918.784	0.62
919.317	-0.38
919.849	-0.38
920.381	2.62
920.914	-3.38
921.446	0.62
921.978	2.62
922.51	-1.38
923.042	-1.38
923.574	-1.38
924.106	-4.38
924.638	0.62
925.17	1.62
925.701	0.62
926.233	2.62
926.765	-3.38
927.296	4.62
927.828	-1.38
928.359	-0.38
928.89	0.62
929.422	-2.38
929.953	-3.38
930.484	1.62
931.015	-3.38
931.546	2.62
932.077	0.62
932.608	0.62
933.138	-2.38
933.669	-2.38
934.2	-1.38
934.73	-0.38
935.261	-4.38
