Data from LOOPyPMA-1_QEP046991__6__18-11-15-757.txt Node

Date: Sun May 11 18:11:15 CEST 2025
User: superuser
Spectrometer: QEP04699
Trigger mode: 4
Integration Time (sec): 1.000000E-1
Scans to average: 1
Electric dark correction enabled: true
Nonlinearity correction enabled: false
Boxcar width: 0
XAxis mode: Wavelengths
Number of Pixels in Spectrum: 1044
>>>>>Begin Spectral Data<<<<<
347.57	11.5
348.165	3.5
348.76	-3.5
349.355	-2.5
349.95	2.5
350.545	0.5
351.14	0.5
351.735	1.5
352.33	2.5
352.924	5.5
353.519	-0.5
354.114	-1.5
354.708	-0.5
355.303	1.5
355.897	1.5
356.491	0.5
357.086	-2.5
357.68	1.5
358.274	3.5
358.868	2.5
359.462	0.5
360.056	0.5
360.65	1.5
361.244	1.5
361.838	-0.5
362.431	1.5
363.025	2.5
363.619	2.5
364.212	4.5
364.806	6.5
365.399	0.5
365.993	-0.5
366.586	4.5
367.179	1.5
367.772	2.5
368.366	-0.5
368.959	0.5
369.552	3.5
370.145	1.5
370.738	-3.5
371.331	2.5
371.923	0.5
372.516	1.5
373.109	-0.5
373.701	-0.5
374.294	-1.5
374.887	3.5
375.479	2.5
376.071	-1.5
376.664	-2.5
377.256	1.5
377.848	0.5
378.44	2.5
379.033	-1.5
379.625	-1.5
380.217	-0.5
380.808	3.5
381.4	1.5
381.992	2.5
382.584	2.5
383.176	3.5
383.767	2.5
384.359	1.5
384.95	-3.5
385.542	1.5
386.133	6.5
386.725	0.5
387.316	3.5
387.907	0.5
388.498	-0.5
389.089	4.5
389.68	3.5
390.271	1.5
390.862	1.5
391.453	5.5
392.044	0.5
392.635	3.5
393.225	1.5
393.816	1.5
394.407	1.5
394.997	-0.5
395.588	0.5
396.178	2.5
396.768	3.5
397.359	0.5
397.949	1.5
398.539	2.5
399.129	4.5
399.719	1.5
400.309	0.5
400.899	5.5
401.489	-4.5
402.079	2.5
402.668	2.5
403.258	0.5
403.848	4.5
404.437	0.5
405.027	3.5
405.616	3.5
406.206	6.5
406.795	5.5
407.384	6.5
407.973	1.5
408.563	3.5
409.152	5.5
409.741	9.5
410.33	4.5
410.919	8.5
411.508	4.5
412.096	7.5
412.685	7.5
413.274	9.5
413.862	6.5
414.451	5.5
415.039	9.5
415.628	8.5
416.216	12.5
416.805	8.5
417.393	14.5
417.981	10.5
418.569	11.5
419.157	13.5
419.745	14.5
420.333	14.5
420.921	13.5
421.509	16.5
422.097	16.5
422.685	18.5
423.272	20.5
423.86	25.5
424.447	17.5
425.035	20.5
425.622	22.5
426.21	29.5
426.797	31.5
427.384	30.5
427.972	34.5
428.559	35.5
429.146	28.5
429.733	34.5
430.32	42.5
430.907	47.5
431.494	53.5
432.08	63.5
432.667	58.5
433.254	64.5
433.84	68.5
434.427	71.5
435.013	78.5
435.6	84.5
436.186	91.5
436.772	103.5
437.359	103.5
437.945	115.5
438.531	127.5
439.117	140.5
439.703	143.5
440.289	161.5
440.875	174.5
441.461	187.5
442.047	197.5
442.632	218.5
443.218	229.5
443.804	239.5
444.389	275.5
444.975	282.5
445.56	303.5
446.145	326.5
446.731	360.5
447.316	367.5
447.901	409.5
448.486	434.5
449.071	455.5
449.656	497.5
450.241	529.5
450.826	573.5
451.411	604.5
451.996	651.5
452.58	711.5
453.165	769.5
453.75	828.5
454.334	900.5
454.919	939.5
455.503	1039.5
456.087	1076.5
456.672	1185.5
457.256	1245.5
457.84	1385.5
458.424	1431.5
459.008	1560.5
459.592	1667.5
460.176	1736.5
460.76	1834.5
461.344	1908.5
461.927	2005.5
462.511	2081.5
463.095	2127.5
463.678	2153.5
464.262	2201.5
464.845	2258.5
465.429	2215.5
466.012	2205.5
466.595	2190.5
467.178	2131.5
467.762	2065.5
468.345	1954.5
468.928	1881.5
469.511	1804.5
470.094	1662.5
470.676	1595.5
471.259	1492.5
471.842	1390.5
472.425	1315.5
473.007	1218.5
473.59	1128.5
474.172	1069.5
474.755	973.5
475.337	930.5
475.919	871.5
476.502	823.5
477.084	777.5
477.666	739.5
478.248	684.5
478.83	669.5
479.412	631.5
479.994	587.5
480.576	568.5
481.157	520.5
481.739	509.5
482.321	482.5
482.902	466.5
483.484	437.5
484.065	424.5
484.647	390.5
485.228	362.5
485.809	349.5
486.391	317.5
486.972	302.5
487.553	272.5
488.134	270.5
488.715	244.5
489.296	232.5
489.877	217.5
490.458	197.5
491.038	198.5
491.619	176.5
492.2	167.5
492.78	162.5
493.361	154.5
493.941	146.5
494.522	145.5
495.102	134.5
495.682	126.5
496.262	123.5
496.843	114.5
497.423	115.5
498.003	109.5
498.583	109.5
499.163	107.5
499.742	107.5
500.322	95.5
500.902	94.5
501.482	102.5
502.061	85.5
502.641	83.5
503.22	90.5
503.8	89.5
504.379	88.5
504.958	88.5
505.538	81.5
506.117	76.5
506.696	85.5
507.275	80.5
507.854	77.5
508.433	86.5
509.012	77.5
509.591	80.5
510.169	89.5
510.748	82.5
511.327	76.5
511.905	94.5
512.484	92.5
513.062	103.5
513.641	97.5
514.219	100.5
514.797	113.5
515.375	119.5
515.954	125.5
516.532	124.5
517.11	137.5
517.688	140.5
518.266	148.5
518.843	174.5
519.421	179.5
519.999	179.5
520.577	181.5
521.154	198.5
521.732	202.5
522.309	214.5
522.887	226.5
523.464	228.5
524.041	246.5
524.619	256.5
525.196	255.5
525.773	256.5
526.35	270.5
526.927	283.5
527.504	285.5
528.081	292.5
528.658	304.5
529.235	297.5
529.811	305.5
530.388	312.5
530.964	304.5
531.541	310.5
532.117	314.5
532.694	309.5
533.27	305.5
533.846	306.5
534.423	314.5
534.999	312.5
535.575	309.5
536.151	320.5
536.727	304.5
537.303	306.5
537.879	303.5
538.455	299.5
539.03	302.5
539.606	310.5
540.182	303.5
540.757	297.5
541.333	292.5
541.908	308.5
542.483	300.5
543.059	288.5
543.634	279.5
544.209	291.5
544.784	285.5
545.359	280.5
545.934	285.5
546.509	260.5
547.084	283.5
547.659	280.5
548.234	257.5
548.808	275.5
549.383	259.5
549.958	267.5
550.532	255.5
551.107	256.5
551.681	250.5
552.255	250.5
552.83	258.5
553.404	263.5
553.978	249.5
554.552	242.5
555.126	253.5
555.7	247.5
556.274	248.5
556.848	257.5
557.422	263.5
557.995	262.5
558.569	261.5
559.143	271.5
559.716	269.5
560.29	265.5
560.863	265.5
561.437	273.5
562.01	281.5
562.583	286.5
563.156	287.5
563.729	288.5
564.302	292.5
564.875	293.5
565.448	292.5
566.021	306.5
566.594	307.5
567.167	293.5
567.74	323.5
568.312	323.5
568.885	322.5
569.457	316.5
570.03	333.5
570.602	317.5
571.174	326.5
571.747	324.5
572.319	321.5
572.891	325.5
573.463	327.5
574.035	333.5
574.607	324.5
575.179	326.5
575.751	319.5
576.323	333.5
576.894	321.5
577.466	323.5
578.038	328.5
578.609	315.5
579.181	323.5
579.752	318.5
580.323	319.5
580.895	313.5
581.466	324.5
582.037	307.5
582.608	323.5
583.179	336.5
583.75	312.5
584.321	317.5
584.892	337.5
585.463	336.5
586.033	336.5
586.604	355.5
587.175	330.5
587.745	338.5
588.316	330.5
588.886	344.5
589.457	341.5
590.027	341.5
590.597	339.5
591.167	331.5
591.737	332.5
592.308	331.5
592.878	343.5
593.447	341.5
594.017	336.5
594.587	326.5
595.157	331.5
595.727	329.5
596.296	316.5
596.866	315.5
597.435	301.5
598.005	319.5
598.574	321.5
599.143	317.5
599.713	308.5
600.282	300.5
600.851	304.5
601.42	307.5
601.989	314.5
602.558	303.5
603.127	298.5
603.696	297.5
604.265	294.5
604.833	291.5
605.402	281.5
605.971	292.5
606.539	296.5
607.108	285.5
607.676	299.5
608.244	291.5
608.813	299.5
609.381	286.5
609.949	285.5
610.517	290.5
611.085	280.5
611.653	302.5
612.221	288.5
612.789	289.5
613.357	289.5
613.924	293.5
614.492	287.5
615.06	289.5
615.627	276.5
616.195	287.5
616.762	290.5
617.329	284.5
617.897	287.5
618.464	279.5
619.031	281.5
619.598	291.5
620.165	275.5
620.732	277.5
621.299	278.5
621.866	290.5
622.433	280.5
623	276.5
623.566	272.5
624.133	267.5
624.7	262.5
625.266	267.5
625.832	271.5
626.399	257.5
626.965	268.5
627.531	271.5
628.098	265.5
628.664	268.5
629.23	261.5
629.796	258.5
630.362	260.5
630.928	247.5
631.493	253.5
632.059	261.5
632.625	250.5
633.19	250.5
633.756	249.5
634.322	260.5
634.887	239.5
635.452	244.5
636.018	241.5
636.583	236.5
637.148	252.5
637.713	224.5
638.278	244.5
638.843	253.5
639.408	227.5
639.973	216.5
640.538	226.5
641.103	228.5
641.667	225.5
642.232	229.5
642.797	227.5
643.361	220.5
643.926	215.5
644.49	215.5
645.054	220.5
645.619	217.5
646.183	213.5
646.747	210.5
647.311	213.5
647.875	205.5
648.439	206.5
649.003	195.5
649.567	206.5
650.131	198.5
650.694	199.5
651.258	200.5
651.822	187.5
652.385	188.5
652.949	187.5
653.512	189.5
654.075	192.5
654.639	188.5
655.202	182.5
655.765	185.5
656.328	183.5
656.891	181.5
657.454	184.5
658.017	179.5
658.58	186.5
659.143	178.5
659.705	172.5
660.268	170.5
660.83	172.5
661.393	166.5
661.955	167.5
662.518	162.5
663.08	152.5
663.643	164.5
664.205	160.5
664.767	157.5
665.329	154.5
665.891	152.5
666.453	152.5
667.015	150.5
667.577	150.5
668.139	150.5
668.7	141.5
669.262	145.5
669.824	144.5
670.385	142.5
670.947	157.5
671.508	145.5
672.069	132.5
672.631	135.5
673.192	133.5
673.753	144.5
674.314	133.5
674.875	130.5
675.436	137.5
675.997	129.5
676.558	131.5
677.119	131.5
677.679	136.5
678.24	128.5
678.801	125.5
679.361	120.5
679.922	126.5
680.482	122.5
681.042	133.5
681.603	124.5
682.163	116.5
682.723	121.5
683.283	122.5
683.843	119.5
684.403	113.5
684.963	118.5
685.523	122.5
686.083	113.5
686.642	115.5
687.202	108.5
687.762	108.5
688.321	119.5
688.881	105.5
689.44	109.5
690	103.5
690.559	98.5
691.118	97.5
691.677	100.5
692.236	100.5
692.795	95.5
693.354	94.5
693.913	94.5
694.472	87.5
695.031	88.5
695.59	96.5
696.148	97.5
696.707	97.5
697.265	94.5
697.824	78.5
698.382	85.5
698.941	79.5
699.499	84.5
700.057	84.5
700.615	89.5
701.173	80.5
701.731	83.5
702.289	75.5
702.847	78.5
703.405	81.5
703.963	79.5
704.521	80.5
705.078	70.5
705.636	73.5
706.194	76.5
706.751	71.5
707.308	69.5
707.866	72.5
708.423	74.5
708.98	71.5
709.537	70.5
710.095	66.5
710.652	74.5
711.209	65.5
711.765	66.5
712.322	61.5
712.879	59.5
713.436	65.5
713.992	63.5
714.549	56.5
715.106	62.5
715.662	61.5
716.218	58.5
716.775	57.5
717.331	55.5
717.887	59.5
718.443	53.5
719	56.5
719.556	51.5
720.112	50.5
720.667	54.5
721.223	51.5
721.779	48.5
722.335	51.5
722.89	48.5
723.446	48.5
724.002	48.5
724.557	48.5
725.112	51.5
725.668	45.5
726.223	41.5
726.778	41.5
727.333	45.5
727.888	43.5
728.443	40.5
728.998	48.5
729.553	44.5
730.108	37.5
730.663	42.5
731.218	39.5
731.772	41.5
732.327	41.5
732.881	38.5
733.436	39.5
733.99	42.5
734.545	39.5
735.099	43.5
735.653	37.5
736.207	38.5
736.761	33.5
737.315	34.5
737.869	39.5
738.423	37.5
738.977	37.5
739.531	32.5
740.084	30.5
740.638	29.5
741.192	31.5
741.745	29.5
742.299	32.5
742.852	30.5
743.405	29.5
743.959	32.5
744.512	29.5
745.065	25.5
745.618	29.5
746.171	32.5
746.724	24.5
747.277	31.5
747.83	35.5
748.382	26.5
748.935	22.5
749.488	28.5
750.04	28.5
750.593	30.5
751.145	28.5
751.698	27.5
752.25	28.5
752.802	26.5
753.354	24.5
753.906	24.5
754.458	26.5
755.01	23.5
755.562	25.5
756.114	25.5
756.666	20.5
757.218	24.5
757.769	22.5
758.321	17.5
758.873	22.5
759.424	21.5
759.975	18.5
760.527	23.5
761.078	18.5
761.629	17.5
762.181	24.5
762.732	17.5
763.283	21.5
763.834	19.5
764.385	19.5
764.935	19.5
765.486	19.5
766.037	14.5
766.588	18.5
767.138	12.5
767.689	15.5
768.239	17.5
768.79	17.5
769.34	15.5
769.89	17.5
770.44	17.5
770.991	16.5
771.541	20.5
772.091	20.5
772.641	16.5
773.191	15.5
773.74	22.5
774.29	18.5
774.84	16.5
775.39	21.5
775.939	16.5
776.489	17.5
777.038	20.5
777.588	17.5
778.137	13.5
778.686	16.5
779.235	13.5
779.784	15.5
780.334	12.5
780.883	15.5
781.431	13.5
781.98	15.5
782.529	13.5
783.078	17.5
783.627	11.5
784.175	13.5
784.724	16.5
785.272	16.5
785.821	10.5
786.369	15.5
786.917	16.5
787.466	14.5
788.014	11.5
788.562	11.5
789.11	9.5
789.658	14.5
790.206	13.5
790.754	12.5
791.302	11.5
791.849	11.5
792.397	12.5
792.945	10.5
793.492	7.5
794.04	13.5
794.587	13.5
795.134	7.5
795.682	8.5
796.229	10.5
796.776	10.5
797.323	10.5
797.87	14.5
798.417	10.5
798.964	13.5
799.511	10.5
800.058	11.5
800.604	4.5
801.151	5.5
801.698	11.5
802.244	9.5
802.791	10.5
803.337	8.5
803.883	13.5
804.43	9.5
804.976	9.5
805.522	8.5
806.068	4.5
806.614	5.5
807.16	9.5
807.706	8.5
808.252	8.5
808.797	7.5
809.343	5.5
809.889	6.5
810.434	3.5
810.98	1.5
811.525	6.5
812.071	5.5
812.616	4.5
813.161	7.5
813.706	5.5
814.252	3.5
814.797	7.5
815.342	2.5
815.886	6.5
816.431	7.5
816.976	9.5
817.521	1.5
818.066	6.5
818.61	10.5
819.155	6.5
819.699	11.5
820.244	7.5
820.788	5.5
821.332	6.5
821.876	4.5
822.421	11.5
822.965	10.5
823.509	3.5
824.053	3.5
824.597	3.5
825.14	6.5
825.684	5.5
826.228	-0.5
826.771	3.5
827.315	2.5
827.859	0.5
828.402	4.5
828.945	6.5
829.489	5.5
830.032	5.5
830.575	7.5
831.118	2.5
831.661	5.5
832.204	4.5
832.747	4.5
833.29	4.5
833.833	4.5
834.376	2.5
834.918	1.5
835.461	3.5
836.004	2.5
836.546	6.5
837.088	2.5
837.631	3.5
838.173	5.5
838.715	5.5
839.257	1.5
839.8	5.5
840.342	5.5
840.884	3.5
841.425	5.5
841.967	7.5
842.509	3.5
843.051	5.5
843.592	2.5
844.134	3.5
844.676	2.5
845.217	2.5
845.758	4.5
846.3	3.5
846.841	3.5
847.382	5.5
847.923	3.5
848.464	-2.5
849.005	5.5
849.546	5.5
850.087	1.5
850.628	2.5
851.169	4.5
851.709	3.5
852.25	5.5
852.791	4.5
853.331	5.5
853.871	1.5
854.412	1.5
854.952	3.5
855.492	-0.5
856.033	5.5
856.573	5.5
857.113	5.5
857.653	3.5
858.193	2.5
858.732	5.5
859.272	4.5
859.812	2.5
860.352	3.5
860.891	3.5
861.431	0.5
861.97	-0.5
862.509	4.5
863.049	4.5
863.588	4.5
864.127	4.5
864.666	0.5
865.205	4.5
865.744	5.5
866.283	2.5
866.822	3.5
867.361	3.5
867.9	0.5
868.438	4.5
868.977	0.5
869.516	4.5
870.054	3.5
870.593	0.5
871.131	4.5
871.669	-2.5
872.207	-0.5
872.746	1.5
873.284	0.5
873.822	1.5
874.36	3.5
874.898	1.5
875.435	5.5
875.973	2.5
876.511	2.5
877.048	4.5
877.586	2.5
878.124	2.5
878.661	1.5
879.198	2.5
879.736	-3.5
880.273	-0.5
880.81	1.5
881.347	-0.5
881.884	-0.5
882.421	2.5
882.958	6.5
883.495	0.5
884.032	5.5
884.569	1.5
885.105	2.5
885.642	0.5
886.178	1.5
886.715	1.5
887.251	1.5
887.788	2.5
888.324	0.5
888.86	1.5
889.396	1.5
889.932	-0.5
890.468	0.5
891.004	3.5
891.54	-1.5
892.076	3.5
892.612	0.5
893.147	1.5
893.683	3.5
894.219	-0.5
894.754	2.5
895.29	4.5
895.825	3.5
896.36	5.5
896.896	2.5
897.431	0.5
897.966	2.5
898.501	1.5
899.036	1.5
899.571	-1.5
900.106	3.5
900.64	1.5
901.175	3.5
901.71	0.5
902.244	3.5
902.779	4.5
903.313	2.5
903.848	-1.5
904.382	3.5
904.916	2.5
905.45	4.5
905.985	2.5
906.519	-0.5
907.053	3.5
907.587	1.5
908.12	-1.5
908.654	0.5
909.188	0.5
909.722	3.5
910.255	3.5
910.789	2.5
911.322	2.5
911.856	4.5
912.389	-0.5
912.922	4.5
913.456	3.5
913.989	0.5
914.522	0.5
915.055	1.5
915.588	6.5
916.121	1.5
916.653	-1.5
917.186	6.5
917.719	-1.5
918.252	2.5
918.784	4.5
919.317	4.5
919.849	0.5
920.381	1.5
920.914	2.5
921.446	4.5
921.978	3.5
922.51	-0.5
923.042	3.5
923.574	-0.5
924.106	-0.5
924.638	1.5
925.17	0.5
925.701	2.5
926.233	1.5
926.765	1.5
927.296	1.5
927.828	2.5
928.359	-0.5
928.89	2.5
929.422	0.5
929.953	0.5
930.484	2.5
931.015	-0.5
931.546	4.5
932.077	1.5
932.608	0.5
933.138	2.5
933.669	-3.5
934.2	0.5
934.73	-3.5
935.261	-2.5
