Data from LOOPyPMA-1_QEP046991__29__18-11-38-758.txt Node

Date: Sun May 11 18:11:38 CEST 2025
User: superuser
Spectrometer: QEP04699
Trigger mode: 4
Integration Time (sec): 1.000000E-1
Scans to average: 1
Electric dark correction enabled: true
Nonlinearity correction enabled: false
Boxcar width: 0
XAxis mode: Wavelengths
Number of Pixels in Spectrum: 1044
>>>>>Begin Spectral Data<<<<<
347.57	8.12
348.165	3.12
348.76	-1.88
349.355	0.12
349.95	-0.88
350.545	0.12
351.14	0.12
351.735	-0.88
352.33	3.12
352.924	0.12
353.519	-0.88
354.114	4.12
354.708	1.12
355.303	0.12
355.897	0.12
356.491	0.12
357.086	-2.88
357.68	-0.88
358.274	0.12
358.868	4.12
359.462	0.12
360.056	-0.88
360.65	1.12
361.244	2.12
361.838	3.12
362.431	1.12
363.025	-1.88
363.619	6.12
364.212	3.12
364.806	-0.88
365.399	3.12
365.993	3.12
366.586	0.12
367.179	2.12
367.772	3.12
368.366	1.12
368.959	2.12
369.552	4.12
370.145	0.12
370.738	1.12
371.331	3.12
371.923	1.12
372.516	-1.88
373.109	2.12
373.701	1.12
374.294	0.12
374.887	1.12
375.479	1.12
376.071	3.12
376.664	3.12
377.256	1.12
377.848	-0.88
378.44	3.12
379.033	-1.88
379.625	2.12
380.217	7.12
380.808	5.12
381.4	0.12
381.992	0.12
382.584	5.12
383.176	-1.88
383.767	1.12
384.359	0.12
384.95	1.12
385.542	0.12
386.133	2.12
386.725	2.12
387.316	-0.88
387.907	-0.88
388.498	2.12
389.089	3.12
389.68	3.12
390.271	2.12
390.862	1.12
391.453	4.12
392.044	2.12
392.635	1.12
393.225	-2.88
393.816	1.12
394.407	2.12
394.997	0.12
395.588	-1.88
396.178	1.12
396.768	6.12
397.359	0.12
397.949	6.12
398.539	2.12
399.129	5.12
399.719	3.12
400.309	-0.88
400.899	0.12
401.489	3.12
402.079	3.12
402.668	3.12
403.258	4.12
403.848	2.12
404.437	0.12
405.027	6.12
405.616	1.12
406.206	1.12
406.795	6.12
407.384	6.12
407.973	3.12
408.563	7.12
409.152	9.12
409.741	5.12
410.33	2.12
410.919	1.12
411.508	2.12
412.096	5.12
412.685	11.12
413.274	9.12
413.862	4.12
414.451	8.12
415.039	7.12
415.628	11.12
416.216	8.12
416.805	10.12
417.393	8.12
417.981	10.12
418.569	10.12
419.157	14.12
419.745	13.12
420.333	17.12
420.921	8.12
421.509	12.12
422.097	14.12
422.685	17.12
423.272	16.12
423.86	18.12
424.447	25.12
425.035	18.12
425.622	25.12
426.21	23.12
426.797	27.12
427.384	36.12
427.972	33.12
428.559	38.12
429.146	36.12
429.733	42.12
430.32	40.12
430.907	46.12
431.494	47.12
432.08	54.12
432.667	55.12
433.254	67.12
433.84	67.12
434.427	77.12
435.013	82.12
435.6	87.12
436.186	97.12
436.772	103.12
437.359	102.12
437.945	115.12
438.531	131.12
439.117	137.12
439.703	158.12
440.289	157.12
440.875	167.12
441.461	192.12
442.047	204.12
442.632	216.12
443.218	228.12
443.804	248.12
444.389	268.12
444.975	288.12
445.56	300.12
446.145	317.12
446.731	358.12
447.316	369.12
447.901	415.12
448.486	435.12
449.071	458.12
449.656	506.12
450.241	556.12
450.826	581.12
451.411	623.12
451.996	656.12
452.58	710.12
453.165	757.12
453.75	833.12
454.334	900.12
454.919	949.12
455.503	1025.12
456.087	1111.12
456.672	1185.12
457.256	1299.12
457.84	1388.12
458.424	1457.12
459.008	1580.12
459.592	1673.12
460.176	1757.12
460.76	1858.12
461.344	1926.12
461.927	2062.12
462.511	2105.12
463.095	2165.12
463.678	2201.12
464.262	2249.12
464.845	2253.12
465.429	2241.12
466.012	2253.12
466.595	2196.12
467.178	2145.12
467.762	2088.12
468.345	1997.12
468.928	1924.12
469.511	1821.12
470.094	1728.12
470.676	1623.12
471.259	1526.12
471.842	1429.12
472.425	1341.12
473.007	1249.12
473.59	1169.12
474.172	1071.12
474.755	1014.12
475.337	960.12
475.919	898.12
476.502	843.12
477.084	789.12
477.666	749.12
478.248	712.12
478.83	680.12
479.412	642.12
479.994	599.12
480.576	575.12
481.157	547.12
481.739	515.12
482.321	501.12
482.902	472.12
483.484	429.12
484.065	417.12
484.647	391.12
485.228	362.12
485.809	348.12
486.391	331.12
486.972	303.12
487.553	286.12
488.134	274.12
488.715	249.12
489.296	231.12
489.877	222.12
490.458	200.12
491.038	194.12
491.619	190.12
492.2	176.12
492.78	166.12
493.361	146.12
493.941	156.12
494.522	147.12
495.102	141.12
495.682	132.12
496.262	118.12
496.843	118.12
497.423	116.12
498.003	116.12
498.583	102.12
499.163	108.12
499.742	103.12
500.322	101.12
500.902	96.12
501.482	94.12
502.061	89.12
502.641	96.12
503.22	96.12
503.8	91.12
504.379	81.12
504.958	89.12
505.538	88.12
506.117	78.12
506.696	85.12
507.275	82.12
507.854	83.12
508.433	80.12
509.012	83.12
509.591	81.12
510.169	81.12
510.748	93.12
511.327	88.12
511.905	87.12
512.484	96.12
513.062	95.12
513.641	105.12
514.219	102.12
514.797	112.12
515.375	107.12
515.954	128.12
516.532	124.12
517.11	133.12
517.688	144.12
518.266	151.12
518.843	154.12
519.421	158.12
519.999	180.12
520.577	186.12
521.154	180.12
521.732	196.12
522.309	208.12
522.887	223.12
523.464	236.12
524.041	242.12
524.619	251.12
525.196	251.12
525.773	262.12
526.35	259.12
526.927	271.12
527.504	273.12
528.081	281.12
528.658	284.12
529.235	284.12
529.811	301.12
530.388	297.12
530.964	302.12
531.541	294.12
532.117	302.12
532.694	308.12
533.27	293.12
533.846	302.12
534.423	295.12
534.999	294.12
535.575	300.12
536.151	288.12
536.727	300.12
537.303	298.12
537.879	293.12
538.455	301.12
539.03	292.12
539.606	283.12
540.182	288.12
540.757	285.12
541.333	286.12
541.908	274.12
542.483	282.12
543.059	279.12
543.634	278.12
544.209	278.12
544.784	274.12
545.359	263.12
545.934	261.12
546.509	265.12
547.084	253.12
547.659	250.12
548.234	252.12
548.808	266.12
549.383	247.12
549.958	260.12
550.532	252.12
551.107	254.12
551.681	248.12
552.255	240.12
552.83	231.12
553.404	240.12
553.978	240.12
554.552	233.12
555.126	244.12
555.7	243.12
556.274	244.12
556.848	239.12
557.422	241.12
557.995	246.12
558.569	250.12
559.143	234.12
559.716	255.12
560.29	253.12
560.863	262.12
561.437	260.12
562.01	271.12
562.583	265.12
563.156	259.12
563.729	265.12
564.302	276.12
564.875	286.12
565.448	288.12
566.021	286.12
566.594	284.12
567.167	287.12
567.74	284.12
568.312	289.12
568.885	299.12
569.457	296.12
570.03	304.12
570.602	322.12
571.174	317.12
571.747	314.12
572.319	315.12
572.891	314.12
573.463	315.12
574.035	312.12
574.607	306.12
575.179	304.12
575.751	303.12
576.323	318.12
576.894	300.12
577.466	312.12
578.038	308.12
578.609	319.12
579.181	318.12
579.752	313.12
580.323	310.12
580.895	310.12
581.466	309.12
582.037	312.12
582.608	306.12
583.179	307.12
583.75	318.12
584.321	316.12
584.892	322.12
585.463	322.12
586.033	324.12
586.604	327.12
587.175	313.12
587.745	322.12
588.316	331.12
588.886	343.12
589.457	333.12
590.027	330.12
590.597	315.12
591.167	325.12
591.737	320.12
592.308	327.12
592.878	300.12
593.447	317.12
594.017	317.12
594.587	321.12
595.157	312.12
595.727	308.12
596.296	312.12
596.866	295.12
597.435	292.12
598.005	301.12
598.574	296.12
599.143	291.12
599.713	282.12
600.282	300.12
600.851	283.12
601.42	289.12
601.989	291.12
602.558	291.12
603.127	283.12
603.696	290.12
604.265	287.12
604.833	285.12
605.402	286.12
605.971	272.12
606.539	294.12
607.108	280.12
607.676	274.12
608.244	276.12
608.813	278.12
609.381	260.12
609.949	267.12
610.517	277.12
611.085	273.12
611.653	272.12
612.221	271.12
612.789	271.12
613.357	270.12
613.924	289.12
614.492	266.12
615.06	265.12
615.627	278.12
616.195	266.12
616.762	266.12
617.329	262.12
617.897	258.12
618.464	257.12
619.031	260.12
619.598	273.12
620.165	271.12
620.732	266.12
621.299	270.12
621.866	262.12
622.433	261.12
623	255.12
623.566	259.12
624.133	262.12
624.7	263.12
625.266	272.12
625.832	253.12
626.399	241.12
626.965	256.12
627.531	248.12
628.098	256.12
628.664	261.12
629.23	246.12
629.796	245.12
630.362	242.12
630.928	256.12
631.493	232.12
632.059	248.12
632.625	244.12
633.19	235.12
633.756	246.12
634.322	242.12
634.887	243.12
635.452	233.12
636.018	236.12
636.583	234.12
637.148	223.12
637.713	235.12
638.278	226.12
638.843	229.12
639.408	215.12
639.973	219.12
640.538	220.12
641.103	214.12
641.667	211.12
642.232	218.12
642.797	200.12
643.361	210.12
643.926	211.12
644.49	212.12
645.054	216.12
645.619	190.12
646.183	204.12
646.747	203.12
647.311	201.12
647.875	193.12
648.439	195.12
649.003	185.12
649.567	197.12
650.131	200.12
650.694	182.12
651.258	186.12
651.822	192.12
652.385	181.12
652.949	183.12
653.512	183.12
654.075	181.12
654.639	182.12
655.202	176.12
655.765	180.12
656.328	171.12
656.891	179.12
657.454	177.12
658.017	168.12
658.58	169.12
659.143	161.12
659.705	173.12
660.268	163.12
660.83	159.12
661.393	154.12
661.955	156.12
662.518	159.12
663.08	161.12
663.643	160.12
664.205	153.12
664.767	149.12
665.329	148.12
665.891	142.12
666.453	153.12
667.015	145.12
667.577	138.12
668.139	141.12
668.7	137.12
669.262	140.12
669.824	141.12
670.385	131.12
670.947	132.12
671.508	134.12
672.069	131.12
672.631	138.12
673.192	127.12
673.753	131.12
674.314	129.12
674.875	121.12
675.436	127.12
675.997	118.12
676.558	130.12
677.119	123.12
677.679	118.12
678.24	122.12
678.801	118.12
679.361	111.12
679.922	128.12
680.482	121.12
681.042	117.12
681.603	123.12
682.163	120.12
682.723	115.12
683.283	130.12
683.843	116.12
684.403	114.12
684.963	104.12
685.523	110.12
686.083	114.12
686.642	111.12
687.202	107.12
687.762	99.12
688.321	111.12
688.881	106.12
689.44	98.12
690	98.12
690.559	101.12
691.118	95.12
691.677	96.12
692.236	95.12
692.795	88.12
693.354	93.12
693.913	89.12
694.472	86.12
695.031	87.12
695.59	90.12
696.148	91.12
696.707	92.12
697.265	87.12
697.824	82.12
698.382	82.12
698.941	77.12
699.499	87.12
700.057	80.12
700.615	82.12
701.173	79.12
701.731	78.12
702.289	80.12
702.847	69.12
703.405	79.12
703.963	72.12
704.521	77.12
705.078	70.12
705.636	71.12
706.194	66.12
706.751	72.12
707.308	71.12
707.866	64.12
708.423	70.12
708.98	60.12
709.537	61.12
710.095	64.12
710.652	66.12
711.209	62.12
711.765	61.12
712.322	63.12
712.879	62.12
713.436	62.12
713.992	59.12
714.549	58.12
715.106	56.12
715.662	58.12
716.218	52.12
716.775	58.12
717.331	55.12
717.887	50.12
718.443	56.12
719	51.12
719.556	50.12
720.112	52.12
720.667	52.12
721.223	45.12
721.779	50.12
722.335	57.12
722.89	43.12
723.446	47.12
724.002	47.12
724.557	47.12
725.112	50.12
725.668	45.12
726.223	42.12
726.778	40.12
727.333	39.12
727.888	45.12
728.443	39.12
728.998	39.12
729.553	42.12
730.108	39.12
730.663	43.12
731.218	39.12
731.772	39.12
732.327	39.12
732.881	42.12
733.436	38.12
733.99	35.12
734.545	36.12
735.099	33.12
735.653	37.12
736.207	33.12
736.761	36.12
737.315	34.12
737.869	30.12
738.423	34.12
738.977	35.12
739.531	35.12
740.084	28.12
740.638	34.12
741.192	28.12
741.745	35.12
742.299	35.12
742.852	32.12
743.405	31.12
743.959	29.12
744.512	30.12
745.065	32.12
745.618	26.12
746.171	29.12
746.724	27.12
747.277	28.12
747.83	26.12
748.382	24.12
748.935	30.12
749.488	26.12
750.04	30.12
750.593	23.12
751.145	26.12
751.698	24.12
752.25	25.12
752.802	22.12
753.354	23.12
753.906	22.12
754.458	25.12
755.01	24.12
755.562	25.12
756.114	23.12
756.666	22.12
757.218	18.12
757.769	21.12
758.321	20.12
758.873	18.12
759.424	19.12
759.975	20.12
760.527	26.12
761.078	18.12
761.629	20.12
762.181	20.12
762.732	22.12
763.283	17.12
763.834	20.12
764.385	18.12
764.935	18.12
765.486	23.12
766.037	16.12
766.588	20.12
767.138	14.12
767.689	17.12
768.239	18.12
768.79	17.12
769.34	13.12
769.89	16.12
770.44	20.12
770.991	15.12
771.541	17.12
772.091	21.12
772.641	12.12
773.191	15.12
773.74	15.12
774.29	15.12
774.84	18.12
775.39	14.12
775.939	14.12
776.489	16.12
777.038	17.12
777.588	14.12
778.137	16.12
778.686	14.12
779.235	16.12
779.784	15.12
780.334	13.12
780.883	15.12
781.431	14.12
781.98	7.12
782.529	13.12
783.078	16.12
783.627	13.12
784.175	14.12
784.724	13.12
785.272	9.12
785.821	16.12
786.369	13.12
786.917	12.12
787.466	10.12
788.014	11.12
788.562	13.12
789.11	13.12
789.658	7.12
790.206	12.12
790.754	14.12
791.302	7.12
791.849	8.12
792.397	12.12
792.945	8.12
793.492	10.12
794.04	11.12
794.587	11.12
795.134	8.12
795.682	9.12
796.229	11.12
796.776	11.12
797.323	5.12
797.87	11.12
798.417	10.12
798.964	10.12
799.511	7.12
800.058	9.12
800.604	8.12
801.151	7.12
801.698	9.12
802.244	8.12
802.791	7.12
803.337	13.12
803.883	6.12
804.43	7.12
804.976	6.12
805.522	8.12
806.068	5.12
806.614	10.12
807.16	6.12
807.706	6.12
808.252	6.12
808.797	6.12
809.343	7.12
809.889	5.12
810.434	5.12
810.98	8.12
811.525	8.12
812.071	9.12
812.616	9.12
813.161	7.12
813.706	5.12
814.252	3.12
814.797	8.12
815.342	4.12
815.886	7.12
816.431	10.12
816.976	4.12
817.521	6.12
818.066	8.12
818.61	9.12
819.155	6.12
819.699	9.12
820.244	5.12
820.788	2.12
821.332	4.12
821.876	6.12
822.421	5.12
822.965	7.12
823.509	4.12
824.053	6.12
824.597	2.12
825.14	4.12
825.684	3.12
826.228	11.12
826.771	8.12
827.315	6.12
827.859	1.12
828.402	6.12
828.945	5.12
829.489	2.12
830.032	1.12
830.575	8.12
831.118	4.12
831.661	3.12
832.204	5.12
832.747	-0.88
833.29	4.12
833.833	3.12
834.376	4.12
834.918	3.12
835.461	0.12
836.004	0.12
836.546	1.12
837.088	0.12
837.631	4.12
838.173	5.12
838.715	0.12
839.257	2.12
839.8	3.12
840.342	9.12
840.884	1.12
841.425	3.12
841.967	5.12
842.509	2.12
843.051	4.12
843.592	5.12
844.134	3.12
844.676	4.12
845.217	5.12
845.758	3.12
846.3	5.12
846.841	3.12
847.382	5.12
847.923	3.12
848.464	4.12
849.005	1.12
849.546	4.12
850.087	1.12
850.628	0.12
851.169	0.12
851.709	2.12
852.25	5.12
852.791	1.12
853.331	4.12
853.871	2.12
854.412	-0.88
854.952	-0.88
855.492	5.12
856.033	0.12
856.573	2.12
857.113	0.12
857.653	4.12
858.193	5.12
858.732	3.12
859.272	2.12
859.812	4.12
860.352	4.12
860.891	5.12
861.431	2.12
861.97	0.12
862.509	6.12
863.049	3.12
863.588	2.12
864.127	1.12
864.666	2.12
865.205	1.12
865.744	7.12
866.283	1.12
866.822	3.12
867.361	1.12
867.9	2.12
868.438	2.12
868.977	2.12
869.516	4.12
870.054	3.12
870.593	2.12
871.131	2.12
871.669	4.12
872.207	1.12
872.746	4.12
873.284	2.12
873.822	0.12
874.36	2.12
874.898	-0.88
875.435	3.12
875.973	1.12
876.511	1.12
877.048	-0.88
877.586	2.12
878.124	-1.88
878.661	3.12
879.198	2.12
879.736	3.12
880.273	2.12
880.81	-0.88
881.347	2.12
881.884	1.12
882.421	-1.88
882.958	0.12
883.495	2.12
884.032	-0.88
884.569	-0.88
885.105	-0.88
885.642	1.12
886.178	2.12
886.715	2.12
887.251	2.12
887.788	2.12
888.324	1.12
888.86	6.12
889.396	-2.88
889.932	3.12
890.468	-2.88
891.004	4.12
891.54	2.12
892.076	2.12
892.612	2.12
893.147	-2.88
893.683	1.12
894.219	2.12
894.754	-0.88
895.29	0.12
895.825	0.12
896.36	-0.88
896.896	2.12
897.431	2.12
897.966	2.12
898.501	1.12
899.036	5.12
899.571	2.12
900.106	-1.88
900.64	-0.88
901.175	-2.88
901.71	6.12
902.244	0.12
902.779	2.12
903.313	1.12
903.848	2.12
904.382	2.12
904.916	2.12
905.45	-3.88
905.985	2.12
906.519	0.12
907.053	-0.88
907.587	3.12
908.12	0.12
908.654	2.12
909.188	1.12
909.722	2.12
910.255	3.12
910.789	-2.88
911.322	3.12
911.856	0.12
912.389	1.12
912.922	-2.88
913.456	5.12
913.989	2.12
914.522	-0.88
915.055	0.12
915.588	3.12
916.121	0.12
916.653	-0.88
917.186	3.12
917.719	2.12
918.252	2.12
918.784	1.12
919.317	-1.88
919.849	-1.88
920.381	1.12
920.914	4.12
921.446	2.12
921.978	2.12
922.51	0.12
923.042	-2.88
923.574	-0.88
924.106	1.12
924.638	-0.88
925.17	4.12
925.701	-0.88
926.233	2.12
926.765	3.12
927.296	3.12
927.828	0.12
928.359	0.12
928.89	-1.88
929.422	5.12
929.953	0.12
930.484	-3.88
931.015	-1.88
931.546	1.12
932.077	-1.88
932.608	2.12
933.138	-1.88
933.669	-1.88
934.2	-1.88
934.73	-3.88
935.261	-1.88
