Data from LOOPyPMA-1_QEP046991__32__18-11-41-758.txt Node

Date: Sun May 11 18:11:41 CEST 2025
User: superuser
Spectrometer: QEP04699
Trigger mode: 4
Integration Time (sec): 1.000000E-1
Scans to average: 1
Electric dark correction enabled: true
Nonlinearity correction enabled: false
Boxcar width: 0
XAxis mode: Wavelengths
Number of Pixels in Spectrum: 1044
>>>>>Begin Spectral Data<<<<<
347.57	10.88
348.165	0.88
348.76	-1.12
349.355	-4.12
349.95	0.88
350.545	-2.12
351.14	-1.12
351.735	-0.12
352.33	-3.12
352.924	1.88
353.519	-0.12
354.114	-2.12
354.708	-1.12
355.303	-2.12
355.897	-4.12
356.491	-1.12
357.086	-3.12
357.68	-5.12
358.274	1.88
358.868	-2.12
359.462	-2.12
360.056	-0.12
360.65	3.88
361.244	1.88
361.838	-2.12
362.431	-0.12
363.025	0.88
363.619	-2.12
364.212	-1.12
364.806	0.88
365.399	-1.12
365.993	0.88
366.586	0.88
367.179	0.88
367.772	1.88
368.366	-0.12
368.959	-1.12
369.552	2.88
370.145	3.88
370.738	0.88
371.331	-0.12
371.923	-1.12
372.516	2.88
373.109	1.88
373.701	-0.12
374.294	0.88
374.887	-0.12
375.479	-0.12
376.071	-4.12
376.664	-0.12
377.256	0.88
377.848	1.88
378.44	-1.12
379.033	-1.12
379.625	-0.12
380.217	0.88
380.808	0.88
381.4	-1.12
381.992	0.88
382.584	-4.12
383.176	2.88
383.767	-2.12
384.359	-0.12
384.95	1.88
385.542	-0.12
386.133	-2.12
386.725	4.88
387.316	0.88
387.907	-0.12
388.498	2.88
389.089	-0.12
389.68	-2.12
390.271	-0.12
390.862	1.88
391.453	-1.12
392.044	1.88
392.635	1.88
393.225	2.88
393.816	1.88
394.407	0.88
394.997	-1.12
395.588	3.88
396.178	0.88
396.768	2.88
397.359	1.88
397.949	-2.12
398.539	2.88
399.129	1.88
399.719	2.88
400.309	0.88
400.899	-0.12
401.489	-0.12
402.079	3.88
402.668	2.88
403.258	1.88
403.848	3.88
404.437	-0.12
405.027	1.88
405.616	2.88
406.206	2.88
406.795	3.88
407.384	0.88
407.973	1.88
408.563	2.88
409.152	2.88
409.741	0.88
410.33	-2.12
410.919	4.88
411.508	0.88
412.096	5.88
412.685	5.88
413.274	8.88
413.862	3.88
414.451	1.88
415.039	6.88
415.628	10.88
416.216	6.88
416.805	6.88
417.393	10.88
417.981	12.88
418.569	9.88
419.157	13.88
419.745	10.88
420.333	11.88
420.921	16.88
421.509	13.88
422.097	13.88
422.685	14.88
423.272	13.88
423.86	16.88
424.447	21.88
425.035	20.88
425.622	24.88
426.21	25.88
426.797	28.88
427.384	26.88
427.972	25.88
428.559	31.88
429.146	31.88
429.733	45.88
430.32	40.88
430.907	43.88
431.494	43.88
432.08	46.88
432.667	54.88
433.254	66.88
433.84	65.88
434.427	63.88
435.013	80.88
435.6	87.88
436.186	90.88
436.772	98.88
437.359	108.88
437.945	118.88
438.531	126.88
439.117	134.88
439.703	157.88
440.289	151.88
440.875	167.88
441.461	185.88
442.047	198.88
442.632	211.88
443.218	227.88
443.804	244.88
444.389	259.88
444.975	286.88
445.56	306.88
446.145	336.88
446.731	351.88
447.316	381.88
447.901	408.88
448.486	416.88
449.071	458.88
449.656	498.88
450.241	537.88
450.826	568.88
451.411	610.88
451.996	655.88
452.58	706.88
453.165	761.88
453.75	830.88
454.334	878.88
454.919	958.88
455.503	1023.88
456.087	1125.88
456.672	1175.88
457.256	1263.88
457.84	1370.88
458.424	1448.88
459.008	1560.88
459.592	1660.88
460.176	1768.88
460.76	1844.88
461.344	1948.88
461.927	2008.88
462.511	2089.88
463.095	2161.88
463.678	2219.88
464.262	2219.88
464.845	2242.88
465.429	2219.88
466.012	2234.88
466.595	2189.88
467.178	2124.88
467.762	2095.88
468.345	1972.88
468.928	1914.88
469.511	1846.88
470.094	1711.88
470.676	1610.88
471.259	1521.88
471.842	1417.88
472.425	1301.88
473.007	1236.88
473.59	1165.88
474.172	1095.88
474.755	1005.88
475.337	927.88
475.919	885.88
476.502	844.88
477.084	785.88
477.666	730.88
478.248	692.88
478.83	659.88
479.412	634.88
479.994	605.88
480.576	577.88
481.157	537.88
481.739	504.88
482.321	497.88
482.902	475.88
483.484	447.88
484.065	432.88
484.647	410.88
485.228	367.88
485.809	347.88
486.391	328.88
486.972	304.88
487.553	289.88
488.134	265.88
488.715	261.88
489.296	230.88
489.877	224.88
490.458	212.88
491.038	192.88
491.619	182.88
492.2	166.88
492.78	154.88
493.361	152.88
493.941	142.88
494.522	141.88
495.102	130.88
495.682	124.88
496.262	125.88
496.843	120.88
497.423	115.88
498.003	114.88
498.583	111.88
499.163	106.88
499.742	103.88
500.322	94.88
500.902	98.88
501.482	104.88
502.061	97.88
502.641	92.88
503.22	87.88
503.8	84.88
504.379	93.88
504.958	77.88
505.538	86.88
506.117	81.88
506.696	76.88
507.275	81.88
507.854	76.88
508.433	81.88
509.012	82.88
509.591	78.88
510.169	85.88
510.748	81.88
511.327	81.88
511.905	88.88
512.484	90.88
513.062	86.88
513.641	95.88
514.219	99.88
514.797	108.88
515.375	108.88
515.954	121.88
516.532	123.88
517.11	136.88
517.688	132.88
518.266	141.88
518.843	157.88
519.421	163.88
519.999	159.88
520.577	167.88
521.154	192.88
521.732	193.88
522.309	219.88
522.887	226.88
523.464	217.88
524.041	233.88
524.619	231.88
525.196	246.88
525.773	244.88
526.35	262.88
526.927	259.88
527.504	277.88
528.081	274.88
528.658	275.88
529.235	274.88
529.811	287.88
530.388	294.88
530.964	289.88
531.541	285.88
532.117	288.88
532.694	293.88
533.27	297.88
533.846	289.88
534.423	292.88
534.999	306.88
535.575	301.88
536.151	287.88
536.727	291.88
537.303	300.88
537.879	290.88
538.455	287.88
539.03	288.88
539.606	279.88
540.182	281.88
540.757	284.88
541.333	275.88
541.908	279.88
542.483	281.88
543.059	271.88
543.634	277.88
544.209	257.88
544.784	262.88
545.359	263.88
545.934	262.88
546.509	267.88
547.084	251.88
547.659	250.88
548.234	259.88
548.808	248.88
549.383	240.88
549.958	250.88
550.532	243.88
551.107	231.88
551.681	228.88
552.255	240.88
552.83	241.88
553.404	226.88
553.978	237.88
554.552	231.88
555.126	245.88
555.7	235.88
556.274	231.88
556.848	229.88
557.422	235.88
557.995	248.88
558.569	249.88
559.143	256.88
559.716	246.88
560.29	245.88
560.863	248.88
561.437	255.88
562.01	267.88
562.583	245.88
563.156	265.88
563.729	259.88
564.302	275.88
564.875	277.88
565.448	286.88
566.021	281.88
566.594	283.88
567.167	282.88
567.74	284.88
568.312	298.88
568.885	295.88
569.457	299.88
570.03	287.88
570.602	298.88
571.174	296.88
571.747	306.88
572.319	306.88
572.891	289.88
573.463	298.88
574.035	300.88
574.607	307.88
575.179	309.88
575.751	309.88
576.323	299.88
576.894	297.88
577.466	293.88
578.038	305.88
578.609	302.88
579.181	301.88
579.752	302.88
580.323	298.88
580.895	302.88
581.466	292.88
582.037	309.88
582.608	306.88
583.179	312.88
583.75	287.88
584.321	300.88
584.892	304.88
585.463	302.88
586.033	322.88
586.604	311.88
587.175	317.88
587.745	310.88
588.316	310.88
588.886	323.88
589.457	309.88
590.027	312.88
590.597	311.88
591.167	322.88
591.737	320.88
592.308	313.88
592.878	307.88
593.447	305.88
594.017	301.88
594.587	315.88
595.157	307.88
595.727	301.88
596.296	298.88
596.866	306.88
597.435	306.88
598.005	289.88
598.574	285.88
599.143	293.88
599.713	285.88
600.282	289.88
600.851	290.88
601.42	289.88
601.989	270.88
602.558	283.88
603.127	284.88
603.696	285.88
604.265	282.88
604.833	277.88
605.402	287.88
605.971	273.88
606.539	279.88
607.108	271.88
607.676	268.88
608.244	284.88
608.813	281.88
609.381	265.88
609.949	280.88
610.517	276.88
611.085	263.88
611.653	269.88
612.221	279.88
612.789	262.88
613.357	264.88
613.924	272.88
614.492	273.88
615.06	274.88
615.627	285.88
616.195	256.88
616.762	257.88
617.329	265.88
617.897	263.88
618.464	265.88
619.031	262.88
619.598	266.88
620.165	262.88
620.732	262.88
621.299	268.88
621.866	267.88
622.433	257.88
623	257.88
623.566	256.88
624.133	253.88
624.7	246.88
625.266	250.88
625.832	248.88
626.399	247.88
626.965	236.88
627.531	244.88
628.098	238.88
628.664	234.88
629.23	260.88
629.796	248.88
630.362	237.88
630.928	238.88
631.493	230.88
632.059	249.88
632.625	248.88
633.19	242.88
633.756	229.88
634.322	221.88
634.887	234.88
635.452	233.88
636.018	225.88
636.583	225.88
637.148	215.88
637.713	219.88
638.278	219.88
638.843	214.88
639.408	212.88
639.973	225.88
640.538	207.88
641.103	205.88
641.667	202.88
642.232	210.88
642.797	210.88
643.361	199.88
643.926	199.88
644.49	198.88
645.054	202.88
645.619	208.88
646.183	207.88
646.747	192.88
647.311	192.88
647.875	187.88
648.439	187.88
649.003	188.88
649.567	186.88
650.131	180.88
650.694	192.88
651.258	179.88
651.822	178.88
652.385	176.88
652.949	180.88
653.512	177.88
654.075	178.88
654.639	174.88
655.202	172.88
655.765	173.88
656.328	170.88
656.891	161.88
657.454	171.88
658.017	160.88
658.58	157.88
659.143	154.88
659.705	162.88
660.268	152.88
660.83	167.88
661.393	153.88
661.955	156.88
662.518	153.88
663.08	154.88
663.643	154.88
664.205	152.88
664.767	149.88
665.329	146.88
665.891	146.88
666.453	134.88
667.015	144.88
667.577	145.88
668.139	135.88
668.7	140.88
669.262	139.88
669.824	138.88
670.385	131.88
670.947	136.88
671.508	126.88
672.069	131.88
672.631	127.88
673.192	125.88
673.753	133.88
674.314	132.88
674.875	124.88
675.436	123.88
675.997	121.88
676.558	120.88
677.119	120.88
677.679	118.88
678.24	111.88
678.801	119.88
679.361	112.88
679.922	122.88
680.482	119.88
681.042	111.88
681.603	123.88
682.163	114.88
682.723	111.88
683.283	113.88
683.843	125.88
684.403	117.88
684.963	110.88
685.523	103.88
686.083	109.88
686.642	106.88
687.202	101.88
687.762	101.88
688.321	108.88
688.881	93.88
689.44	95.88
690	98.88
690.559	99.88
691.118	93.88
691.677	100.88
692.236	96.88
692.795	94.88
693.354	95.88
693.913	95.88
694.472	92.88
695.031	79.88
695.59	88.88
696.148	84.88
696.707	84.88
697.265	85.88
697.824	74.88
698.382	77.88
698.941	82.88
699.499	78.88
700.057	76.88
700.615	76.88
701.173	82.88
701.731	76.88
702.289	75.88
702.847	69.88
703.405	76.88
703.963	71.88
704.521	74.88
705.078	69.88
705.636	64.88
706.194	64.88
706.751	55.88
707.308	61.88
707.866	68.88
708.423	62.88
708.98	68.88
709.537	52.88
710.095	64.88
710.652	58.88
711.209	64.88
711.765	62.88
712.322	57.88
712.879	58.88
713.436	60.88
713.992	50.88
714.549	54.88
715.106	54.88
715.662	57.88
716.218	51.88
716.775	52.88
717.331	49.88
717.887	49.88
718.443	50.88
719	53.88
719.556	50.88
720.112	47.88
720.667	46.88
721.223	48.88
721.779	40.88
722.335	44.88
722.89	42.88
723.446	43.88
724.002	43.88
724.557	36.88
725.112	44.88
725.668	38.88
726.223	33.88
726.778	43.88
727.333	35.88
727.888	40.88
728.443	38.88
728.998	39.88
729.553	39.88
730.108	39.88
730.663	38.88
731.218	32.88
731.772	39.88
732.327	36.88
732.881	38.88
733.436	31.88
733.99	42.88
734.545	40.88
735.099	33.88
735.653	32.88
736.207	34.88
736.761	28.88
737.315	29.88
737.869	37.88
738.423	34.88
738.977	32.88
739.531	30.88
740.084	27.88
740.638	32.88
741.192	32.88
741.745	32.88
742.299	27.88
742.852	26.88
743.405	26.88
743.959	27.88
744.512	24.88
745.065	25.88
745.618	21.88
746.171	25.88
746.724	27.88
747.277	26.88
747.83	26.88
748.382	26.88
748.935	24.88
749.488	26.88
750.04	22.88
750.593	23.88
751.145	17.88
751.698	22.88
752.25	20.88
752.802	21.88
753.354	23.88
753.906	17.88
754.458	22.88
755.01	20.88
755.562	21.88
756.114	16.88
756.666	16.88
757.218	22.88
757.769	17.88
758.321	15.88
758.873	19.88
759.424	26.88
759.975	14.88
760.527	22.88
761.078	12.88
761.629	19.88
762.181	19.88
762.732	11.88
763.283	21.88
763.834	11.88
764.385	13.88
764.935	23.88
765.486	14.88
766.037	16.88
766.588	15.88
767.138	15.88
767.689	12.88
768.239	10.88
768.79	13.88
769.34	13.88
769.89	9.88
770.44	17.88
770.991	14.88
771.541	17.88
772.091	12.88
772.641	10.88
773.191	15.88
773.74	12.88
774.29	14.88
774.84	13.88
775.39	17.88
775.939	13.88
776.489	13.88
777.038	12.88
777.588	9.88
778.137	12.88
778.686	11.88
779.235	15.88
779.784	10.88
780.334	14.88
780.883	16.88
781.431	13.88
781.98	11.88
782.529	15.88
783.078	11.88
783.627	14.88
784.175	11.88
784.724	10.88
785.272	14.88
785.821	6.88
786.369	7.88
786.917	7.88
787.466	9.88
788.014	9.88
788.562	11.88
789.11	11.88
789.658	12.88
790.206	7.88
790.754	10.88
791.302	12.88
791.849	11.88
792.397	7.88
792.945	6.88
793.492	9.88
794.04	7.88
794.587	7.88
795.134	8.88
795.682	6.88
796.229	9.88
796.776	7.88
797.323	8.88
797.87	11.88
798.417	6.88
798.964	5.88
799.511	5.88
800.058	6.88
800.604	7.88
801.151	5.88
801.698	6.88
802.244	4.88
802.791	8.88
803.337	4.88
803.883	5.88
804.43	2.88
804.976	4.88
805.522	4.88
806.068	8.88
806.614	5.88
807.16	2.88
807.706	3.88
808.252	2.88
808.797	4.88
809.343	-1.12
809.889	3.88
810.434	4.88
810.98	5.88
811.525	-0.12
812.071	2.88
812.616	2.88
813.161	4.88
813.706	3.88
814.252	1.88
814.797	6.88
815.342	2.88
815.886	7.88
816.431	4.88
816.976	3.88
817.521	0.88
818.066	3.88
818.61	6.88
819.155	5.88
819.699	5.88
820.244	-0.12
820.788	3.88
821.332	2.88
821.876	1.88
822.421	5.88
822.965	4.88
823.509	0.88
824.053	3.88
824.597	2.88
825.14	3.88
825.684	0.88
826.228	4.88
826.771	2.88
827.315	4.88
827.859	-0.12
828.402	5.88
828.945	5.88
829.489	2.88
830.032	-0.12
830.575	-3.12
831.118	5.88
831.661	3.88
832.204	0.88
832.747	1.88
833.29	1.88
833.833	4.88
834.376	-1.12
834.918	-0.12
835.461	7.88
836.004	4.88
836.546	0.88
837.088	2.88
837.631	1.88
838.173	-0.12
838.715	-0.12
839.257	3.88
839.8	-2.12
840.342	3.88
840.884	5.88
841.425	-1.12
841.967	1.88
842.509	1.88
843.051	-1.12
843.592	2.88
844.134	2.88
844.676	-0.12
845.217	3.88
845.758	1.88
846.3	2.88
846.841	-2.12
847.382	2.88
847.923	-0.12
848.464	0.88
849.005	-1.12
849.546	0.88
850.087	3.88
850.628	0.88
851.169	-1.12
851.709	0.88
852.25	-2.12
852.791	3.88
853.331	1.88
853.871	1.88
854.412	-0.12
854.952	-0.12
855.492	-1.12
856.033	0.88
856.573	-1.12
857.113	1.88
857.653	-0.12
858.193	0.88
858.732	0.88
859.272	2.88
859.812	2.88
860.352	-1.12
860.891	3.88
861.431	1.88
861.97	1.88
862.509	-1.12
863.049	1.88
863.588	2.88
864.127	0.88
864.666	-3.12
865.205	-2.12
865.744	3.88
866.283	-2.12
866.822	1.88
867.361	1.88
867.9	-1.12
868.438	-1.12
868.977	-1.12
869.516	-0.12
870.054	-2.12
870.593	2.88
871.131	-2.12
871.669	4.88
872.207	1.88
872.746	-0.12
873.284	1.88
873.822	-0.12
874.36	-2.12
874.898	-1.12
875.435	0.88
875.973	5.88
876.511	-0.12
877.048	0.88
877.586	1.88
878.124	-2.12
878.661	-1.12
879.198	-1.12
879.736	-2.12
880.273	-1.12
880.81	0.88
881.347	-1.12
881.884	-1.12
882.421	0.88
882.958	-0.12
883.495	0.88
884.032	-1.12
884.569	-1.12
885.105	3.88
885.642	0.88
886.178	-1.12
886.715	2.88
887.251	0.88
887.788	-0.12
888.324	-1.12
888.86	3.88
889.396	-4.12
889.932	-2.12
890.468	-2.12
891.004	-4.12
891.54	-0.12
892.076	1.88
892.612	2.88
893.147	-0.12
893.683	0.88
894.219	-0.12
894.754	-1.12
895.29	-2.12
895.825	-0.12
896.36	-1.12
896.896	1.88
897.431	-0.12
897.966	-3.12
898.501	-1.12
899.036	-4.12
899.571	1.88
900.106	3.88
900.64	5.88
901.175	-0.12
901.71	-4.12
902.244	-2.12
902.779	0.88
903.313	-0.12
903.848	-0.12
904.382	0.88
904.916	-2.12
905.45	-2.12
905.985	-1.12
906.519	-0.12
907.053	-1.12
907.587	2.88
908.12	0.88
908.654	-2.12
909.188	1.88
909.722	0.88
910.255	1.88
910.789	1.88
911.322	2.88
911.856	-2.12
912.389	-0.12
912.922	2.88
913.456	-1.12
913.989	-1.12
914.522	-1.12
915.055	-0.12
915.588	-0.12
916.121	0.88
916.653	-2.12
917.186	-1.12
917.719	-0.12
918.252	-4.12
918.784	0.88
919.317	-0.12
919.849	-0.12
920.381	-1.12
920.914	0.88
921.446	1.88
921.978	-1.12
922.51	-1.12
923.042	-4.12
923.574	1.88
924.106	3.88
924.638	1.88
925.17	2.88
925.701	-0.12
926.233	0.88
926.765	0.88
927.296	0.88
927.828	-0.12
928.359	2.88
928.89	0.88
929.422	-1.12
929.953	-1.12
930.484	0.88
931.015	0.88
931.546	-1.12
932.077	0.88
932.608	-0.12
933.138	0.88
933.669	1.88
934.2	-4.12
934.73	-5.12
935.261	0.88
