Data from LOOPyPMA-1_QEP046991__49__18-11-58-758.txt Node

Date: Sun May 11 18:11:58 CEST 2025
User: superuser
Spectrometer: QEP04699
Trigger mode: 4
Integration Time (sec): 1.000000E-1
Scans to average: 1
Electric dark correction enabled: true
Nonlinearity correction enabled: false
Boxcar width: 0
XAxis mode: Wavelengths
Number of Pixels in Spectrum: 1044
>>>>>Begin Spectral Data<<<<<
347.57	12
348.165	-1
348.76	-2
349.355	-1
349.95	-1
350.545	-1
351.14	-4
351.735	4
352.33	-2
352.924	-3
353.519	0
354.114	2
354.708	-4
355.303	-3
355.897	-2
356.491	1
357.086	1
357.68	4
358.274	0
358.868	0
359.462	6
360.056	2
360.65	0
361.244	-4
361.838	1
362.431	-3
363.025	1
363.619	-2
364.212	0
364.806	0
365.399	1
365.993	1
366.586	-1
367.179	3
367.772	1
368.366	3
368.959	0
369.552	-5
370.145	0
370.738	-2
371.331	-1
371.923	2
372.516	-3
373.109	-3
373.701	1
374.294	2
374.887	0
375.479	3
376.071	3
376.664	-3
377.256	-1
377.848	-1
378.44	2
379.033	-1
379.625	-2
380.217	-4
380.808	1
381.4	-2
381.992	0
382.584	0
383.176	0
383.767	-2
384.359	1
384.95	-3
385.542	3
386.133	3
386.725	1
387.316	2
387.907	-1
388.498	3
389.089	2
389.68	-1
390.271	0
390.862	3
391.453	-3
392.044	-2
392.635	-2
393.225	3
393.816	-2
394.407	-1
394.997	4
395.588	2
396.178	4
396.768	4
397.359	2
397.949	0
398.539	4
399.129	5
399.719	2
400.309	4
400.899	3
401.489	4
402.079	5
402.668	-2
403.258	1
403.848	4
404.437	3
405.027	1
405.616	1
406.206	-1
406.795	2
407.384	3
407.973	1
408.563	2
409.152	2
409.741	4
410.33	2
410.919	1
411.508	5
412.096	6
412.685	4
413.274	6
413.862	7
414.451	8
415.039	8
415.628	8
416.216	6
416.805	8
417.393	5
417.981	3
418.569	8
419.157	15
419.745	13
420.333	13
420.921	11
421.509	16
422.097	10
422.685	14
423.272	20
423.86	18
424.447	20
425.035	25
425.622	26
426.21	24
426.797	27
427.384	31
427.972	30
428.559	29
429.146	40
429.733	48
430.32	44
430.907	40
431.494	49
432.08	50
432.667	56
433.254	57
433.84	71
434.427	79
435.013	84
435.6	92
436.186	93
436.772	104
437.359	110
437.945	118
438.531	132
439.117	138
439.703	147
440.289	170
440.875	170
441.461	192
442.047	206
442.632	218
443.218	234
443.804	250
444.389	278
444.975	295
445.56	313
446.145	323
446.731	371
447.316	381
447.901	413
448.486	447
449.071	474
449.656	505
450.241	545
450.826	577
451.411	630
451.996	670
452.58	731
453.165	769
453.75	857
454.334	930
454.919	985
455.503	1027
456.087	1153
456.672	1213
457.256	1307
457.84	1421
458.424	1541
459.008	1638
459.592	1712
460.176	1849
460.76	1923
461.344	2009
461.927	2070
462.511	2183
463.095	2198
463.678	2281
464.262	2323
464.845	2345
465.429	2333
466.012	2289
466.595	2260
467.178	2242
467.762	2168
468.345	2054
468.928	1971
469.511	1875
470.094	1799
470.676	1704
471.259	1556
471.842	1490
472.425	1374
473.007	1297
473.59	1202
474.172	1127
474.755	1075
475.337	989
475.919	940
476.502	880
477.084	830
477.666	787
478.248	762
478.83	694
479.412	687
479.994	627
480.576	607
481.157	587
481.739	549
482.321	519
482.902	507
483.484	472
484.065	448
484.647	413
485.228	417
485.809	368
486.391	341
486.972	318
487.553	303
488.134	295
488.715	271
489.296	249
489.877	240
490.458	220
491.038	205
491.619	190
492.2	181
492.78	177
493.361	158
493.941	149
494.522	148
495.102	150
495.682	143
496.262	137
496.843	125
497.423	124
498.003	119
498.583	123
499.163	114
499.742	115
500.322	108
500.902	95
501.482	91
502.061	98
502.641	106
503.22	92
503.8	89
504.379	89
504.958	89
505.538	82
506.117	75
506.696	78
507.275	83
507.854	70
508.433	75
509.012	77
509.591	73
510.169	81
510.748	77
511.327	85
511.905	91
512.484	88
513.062	92
513.641	103
514.219	101
514.797	99
515.375	108
515.954	113
516.532	117
517.11	124
517.688	134
518.266	135
518.843	139
519.421	151
519.999	160
520.577	167
521.154	175
521.732	183
522.309	191
522.887	209
523.464	218
524.041	219
524.619	220
525.196	225
525.773	247
526.35	244
526.927	250
527.504	265
528.081	265
528.658	273
529.235	267
529.811	276
530.388	277
530.964	270
531.541	274
532.117	272
532.694	282
533.27	284
533.846	284
534.423	284
534.999	277
535.575	277
536.151	281
536.727	275
537.303	275
537.879	276
538.455	277
539.03	271
539.606	266
540.182	261
540.757	268
541.333	259
541.908	271
542.483	261
543.059	261
543.634	249
544.209	249
544.784	254
545.359	249
545.934	246
546.509	239
547.084	233
547.659	233
548.234	231
548.808	243
549.383	230
549.958	227
550.532	237
551.107	233
551.681	230
552.255	231
552.83	222
553.404	223
553.978	225
554.552	215
555.126	227
555.7	226
556.274	206
556.848	236
557.422	232
557.995	230
558.569	230
559.143	235
559.716	237
560.29	245
560.863	239
561.437	240
562.01	252
562.583	244
563.156	252
563.729	241
564.302	262
564.875	248
565.448	268
566.021	248
566.594	253
567.167	264
567.74	278
568.312	276
568.885	277
569.457	280
570.03	279
570.602	283
571.174	292
571.747	287
572.319	281
572.891	272
573.463	285
574.035	283
574.607	292
575.179	287
575.751	284
576.323	283
576.894	284
577.466	289
578.038	292
578.609	283
579.181	283
579.752	288
580.323	282
580.895	278
581.466	285
582.037	286
582.608	284
583.179	288
583.75	287
584.321	284
584.892	292
585.463	287
586.033	292
586.604	302
587.175	298
587.745	303
588.316	309
588.886	303
589.457	294
590.027	300
590.597	304
591.167	300
591.737	294
592.308	297
592.878	289
593.447	283
594.017	292
594.587	281
595.157	274
595.727	277
596.296	275
596.866	284
597.435	271
598.005	273
598.574	274
599.143	281
599.713	269
600.282	279
600.851	272
601.42	269
601.989	267
602.558	257
603.127	262
603.696	262
604.265	252
604.833	259
605.402	255
605.971	264
606.539	253
607.108	268
607.676	255
608.244	253
608.813	267
609.381	257
609.949	252
610.517	244
611.085	250
611.653	242
612.221	251
612.789	246
613.357	255
613.924	252
614.492	243
615.06	257
615.627	248
616.195	241
616.762	244
617.329	249
617.897	243
618.464	239
619.031	249
619.598	252
620.165	238
620.732	249
621.299	241
621.866	230
622.433	241
623	245
623.566	241
624.133	242
624.7	229
625.266	247
625.832	236
626.399	232
626.965	238
627.531	220
628.098	229
628.664	225
629.23	236
629.796	235
630.362	220
630.928	217
631.493	215
632.059	220
632.625	221
633.19	214
633.756	219
634.322	215
634.887	208
635.452	213
636.018	211
636.583	211
637.148	198
637.713	216
638.278	200
638.843	201
639.408	202
639.973	204
640.538	201
641.103	196
641.667	204
642.232	187
642.797	195
643.361	178
643.926	191
644.49	190
645.054	184
645.619	185
646.183	176
646.747	187
647.311	181
647.875	176
648.439	165
649.003	182
649.567	169
650.131	172
650.694	176
651.258	159
651.822	174
652.385	167
652.949	165
653.512	167
654.075	169
654.639	163
655.202	164
655.765	163
656.328	154
656.891	157
657.454	153
658.017	155
658.58	152
659.143	147
659.705	155
660.268	144
660.83	149
661.393	146
661.955	146
662.518	143
663.08	132
663.643	134
664.205	141
664.767	136
665.329	139
665.891	138
666.453	127
667.015	128
667.577	142
668.139	131
668.7	128
669.262	122
669.824	127
670.385	131
670.947	126
671.508	131
672.069	119
672.631	120
673.192	120
673.753	119
674.314	114
674.875	113
675.436	117
675.997	118
676.558	116
677.119	113
677.679	106
678.24	115
678.801	114
679.361	109
679.922	118
680.482	113
681.042	107
681.603	112
682.163	102
682.723	107
683.283	102
683.843	112
684.403	100
684.963	109
685.523	102
686.083	100
686.642	103
687.202	91
687.762	101
688.321	94
688.881	93
689.44	99
690	89
690.559	95
691.118	88
691.677	89
692.236	88
692.795	84
693.354	81
693.913	82
694.472	78
695.031	76
695.59	79
696.148	77
696.707	74
697.265	81
697.824	77
698.382	76
698.941	73
699.499	73
700.057	70
700.615	68
701.173	68
701.731	74
702.289	69
702.847	70
703.405	64
703.963	60
704.521	62
705.078	64
705.636	67
706.194	60
706.751	59
707.308	62
707.866	58
708.423	65
708.98	57
709.537	58
710.095	56
710.652	54
711.209	56
711.765	53
712.322	58
712.879	58
713.436	56
713.992	50
714.549	51
715.106	54
715.662	50
716.218	49
716.775	54
717.331	52
717.887	53
718.443	46
719	46
719.556	50
720.112	44
720.667	48
721.223	45
721.779	46
722.335	42
722.89	47
723.446	40
724.002	43
724.557	42
725.112	42
725.668	42
726.223	40
726.778	38
727.333	38
727.888	36
728.443	32
728.998	36
729.553	36
730.108	36
730.663	35
731.218	35
731.772	35
732.327	35
732.881	35
733.436	27
733.99	33
734.545	40
735.099	35
735.653	36
736.207	32
736.761	32
737.315	32
737.869	28
738.423	32
738.977	34
739.531	25
740.084	29
740.638	28
741.192	31
741.745	25
742.299	28
742.852	27
743.405	30
743.959	28
744.512	25
745.065	26
745.618	23
746.171	22
746.724	25
747.277	28
747.83	24
748.382	27
748.935	23
749.488	29
750.04	22
750.593	25
751.145	19
751.698	23
752.25	19
752.802	19
753.354	23
753.906	24
754.458	22
755.01	22
755.562	20
756.114	21
756.666	19
757.218	16
757.769	14
758.321	21
758.873	18
759.424	20
759.975	15
760.527	13
761.078	17
761.629	18
762.181	13
762.732	15
763.283	16
763.834	20
764.385	19
764.935	18
765.486	13
766.037	17
766.588	14
767.138	10
767.689	16
768.239	14
768.79	13
769.34	14
769.89	16
770.44	11
770.991	15
771.541	18
772.091	16
772.641	15
773.191	12
773.74	14
774.29	10
774.84	9
775.39	13
775.939	10
776.489	14
777.038	12
777.588	16
778.137	13
778.686	19
779.235	16
779.784	10
780.334	9
780.883	14
781.431	13
781.98	13
782.529	13
783.078	12
783.627	9
784.175	10
784.724	13
785.272	13
785.821	10
786.369	9
786.917	6
787.466	12
788.014	12
788.562	9
789.11	8
789.658	8
790.206	12
790.754	5
791.302	8
791.849	10
792.397	10
792.945	7
793.492	11
794.04	8
794.587	7
795.134	7
795.682	10
796.229	8
796.776	6
797.323	7
797.87	6
798.417	8
798.964	5
799.511	7
800.058	6
800.604	6
801.151	11
801.698	5
802.244	9
802.791	7
803.337	10
803.883	7
804.43	5
804.976	2
805.522	8
806.068	8
806.614	1
807.16	4
807.706	7
808.252	3
808.797	11
809.343	7
809.889	6
810.434	5
810.98	5
811.525	1
812.071	5
812.616	7
813.161	6
813.706	3
814.252	3
814.797	8
815.342	8
815.886	4
816.431	3
816.976	2
817.521	9
818.066	5
818.61	5
819.155	-1
819.699	4
820.244	5
820.788	8
821.332	2
821.876	1
822.421	1
822.965	3
823.509	3
824.053	1
824.597	2
825.14	8
825.684	6
826.228	6
826.771	6
827.315	4
827.859	0
828.402	6
828.945	2
829.489	3
830.032	5
830.575	3
831.118	3
831.661	4
832.204	1
832.747	0
833.29	1
833.833	-2
834.376	2
834.918	1
835.461	-1
836.004	1
836.546	5
837.088	2
837.631	3
838.173	5
838.715	0
839.257	1
839.8	-3
840.342	4
840.884	4
841.425	3
841.967	2
842.509	2
843.051	0
843.592	2
844.134	2
844.676	1
845.217	2
845.758	4
846.3	1
846.841	3
847.382	1
847.923	3
848.464	-1
849.005	0
849.546	1
850.087	0
850.628	-1
851.169	0
851.709	-1
852.25	1
852.791	1
853.331	3
853.871	1
854.412	1
854.952	2
855.492	2
856.033	2
856.573	3
857.113	2
857.653	1
858.193	0
858.732	1
859.272	5
859.812	-1
860.352	4
860.891	-1
861.431	3
861.97	5
862.509	-2
863.049	-1
863.588	0
864.127	0
864.666	2
865.205	0
865.744	0
866.283	-2
866.822	-2
867.361	1
867.9	4
868.438	-1
868.977	0
869.516	0
870.054	-1
870.593	0
871.131	-2
871.669	2
872.207	-1
872.746	1
873.284	6
873.822	0
874.36	2
874.898	-3
875.435	0
875.973	-3
876.511	-4
877.048	0
877.586	1
878.124	-2
878.661	-2
879.198	-3
879.736	-1
880.273	1
880.81	-2
881.347	0
881.884	1
882.421	0
882.958	1
883.495	1
884.032	0
884.569	1
885.105	-4
885.642	-2
886.178	-4
886.715	0
887.251	1
887.788	-1
888.324	1
888.86	-2
889.396	1
889.932	2
890.468	1
891.004	-4
891.54	-1
892.076	-2
892.612	-3
893.147	0
893.683	-2
894.219	0
894.754	-1
895.29	3
895.825	0
896.36	-4
896.896	-6
897.431	-1
897.966	2
898.501	2
899.036	0
899.571	-3
900.106	5
900.64	2
901.175	-2
901.71	-1
902.244	3
902.779	2
903.313	0
903.848	4
904.382	-4
904.916	0
905.45	-1
905.985	0
906.519	-1
907.053	1
907.587	-1
908.12	-3
908.654	4
909.188	-3
909.722	5
910.255	-1
910.789	0
911.322	-3
911.856	1
912.389	-1
912.922	0
913.456	2
913.989	2
914.522	-5
915.055	4
915.588	1
916.121	1
916.653	0
917.186	-2
917.719	-1
918.252	1
918.784	0
919.317	-4
919.849	0
920.381	0
920.914	2
921.446	-1
921.978	2
922.51	4
923.042	4
923.574	-1
924.106	3
924.638	4
925.17	-4
925.701	1
926.233	-1
926.765	-2
927.296	-1
927.828	0
928.359	0
928.89	0
929.422	-2
929.953	0
930.484	2
931.015	-1
931.546	-4
932.077	-1
932.608	-2
933.138	-2
933.669	-4
934.2	-1
934.73	-4
935.261	1
