Data from LOOPyPMA-1_QEP046991__45__18-11-54-758.txt Node

Date: Sun May 11 18:11:54 CEST 2025
User: superuser
Spectrometer: QEP04699
Trigger mode: 4
Integration Time (sec): 1.000000E-1
Scans to average: 1
Electric dark correction enabled: true
Nonlinearity correction enabled: false
Boxcar width: 0
XAxis mode: Wavelengths
Number of Pixels in Spectrum: 1044
>>>>>Begin Spectral Data<<<<<
347.57	13.25
348.165	2.25
348.76	-2.75
349.355	-2.75
349.95	-0.75
350.545	-1.75
351.14	0.25
351.735	5.25
352.33	2.25
352.924	-0.75
353.519	1.25
354.114	3.25
354.708	1.25
355.303	1.25
355.897	0.25
356.491	-3.75
357.086	1.25
357.68	-1.75
358.274	1.25
358.868	-0.75
359.462	1.25
360.056	3.25
360.65	-0.75
361.244	1.25
361.838	1.25
362.431	-1.75
363.025	2.25
363.619	2.25
364.212	-1.75
364.806	1.25
365.399	3.25
365.993	-1.75
366.586	5.25
367.179	2.25
367.772	-0.75
368.366	0.25
368.959	0.25
369.552	4.25
370.145	-1.75
370.738	1.25
371.331	0.25
371.923	2.25
372.516	-2.75
373.109	1.25
373.701	1.25
374.294	-2.75
374.887	3.25
375.479	0.25
376.071	0.25
376.664	-0.75
377.256	0.25
377.848	0.25
378.44	0.25
379.033	5.25
379.625	-1.75
380.217	-2.75
380.808	0.25
381.4	1.25
381.992	4.25
382.584	0.25
383.176	-1.75
383.767	2.25
384.359	-1.75
384.95	2.25
385.542	-1.75
386.133	-0.75
386.725	-0.75
387.316	2.25
387.907	1.25
388.498	1.25
389.089	1.25
389.68	1.25
390.271	0.25
390.862	0.25
391.453	4.25
392.044	-0.75
392.635	-2.75
393.225	0.25
393.816	-2.75
394.407	2.25
394.997	-0.75
395.588	0.25
396.178	4.25
396.768	3.25
397.359	0.25
397.949	4.25
398.539	-2.75
399.129	2.25
399.719	6.25
400.309	-2.75
400.899	0.25
401.489	-0.75
402.079	-1.75
402.668	2.25
403.258	0.25
403.848	1.25
404.437	2.25
405.027	3.25
405.616	3.25
406.206	1.25
406.795	4.25
407.384	3.25
407.973	0.25
408.563	4.25
409.152	9.25
409.741	-0.75
410.33	4.25
410.919	6.25
411.508	2.25
412.096	4.25
412.685	4.25
413.274	3.25
413.862	4.25
414.451	6.25
415.039	9.25
415.628	5.25
416.216	9.25
416.805	9.25
417.393	10.25
417.981	9.25
418.569	10.25
419.157	11.25
419.745	11.25
420.333	15.25
420.921	8.25
421.509	14.25
422.097	20.25
422.685	22.25
423.272	16.25
423.86	21.25
424.447	18.25
425.035	25.25
425.622	27.25
426.21	24.25
426.797	25.25
427.384	27.25
427.972	31.25
428.559	37.25
429.146	40.25
429.733	36.25
430.32	46.25
430.907	46.25
431.494	50.25
432.08	50.25
432.667	53.25
433.254	66.25
433.84	66.25
434.427	78.25
435.013	75.25
435.6	84.25
436.186	93.25
436.772	101.25
437.359	109.25
437.945	110.25
438.531	124.25
439.117	134.25
439.703	159.25
440.289	148.25
440.875	165.25
441.461	185.25
442.047	209.25
442.632	222.25
443.218	225.25
443.804	242.25
444.389	253.25
444.975	288.25
445.56	315.25
446.145	332.25
446.731	360.25
447.316	384.25
447.901	422.25
448.486	448.25
449.071	474.25
449.656	501.25
450.241	545.25
450.826	604.25
451.411	633.25
451.996	672.25
452.58	727.25
453.165	753.25
453.75	825.25
454.334	905.25
454.919	977.25
455.503	1041.25
456.087	1127.25
456.672	1204.25
457.256	1310.25
457.84	1413.25
458.424	1502.25
459.008	1601.25
459.592	1679.25
460.176	1816.25
460.76	1872.25
461.344	1959.25
461.927	2095.25
462.511	2153.25
463.095	2168.25
463.678	2265.25
464.262	2280.25
464.845	2279.25
465.429	2314.25
466.012	2296.25
466.595	2237.25
467.178	2169.25
467.762	2090.25
468.345	2060.25
468.928	1943.25
469.511	1856.25
470.094	1738.25
470.676	1649.25
471.259	1578.25
471.842	1456.25
472.425	1361.25
473.007	1280.25
473.59	1200.25
474.172	1110.25
474.755	1054.25
475.337	976.25
475.919	920.25
476.502	856.25
477.084	835.25
477.666	761.25
478.248	726.25
478.83	695.25
479.412	659.25
479.994	617.25
480.576	591.25
481.157	558.25
481.739	542.25
482.321	523.25
482.902	478.25
483.484	466.25
484.065	444.25
484.647	417.25
485.228	380.25
485.809	368.25
486.391	343.25
486.972	315.25
487.553	304.25
488.134	287.25
488.715	269.25
489.296	238.25
489.877	218.25
490.458	224.25
491.038	205.25
491.619	199.25
492.2	180.25
492.78	159.25
493.361	162.25
493.941	150.25
494.522	149.25
495.102	132.25
495.682	134.25
496.262	129.25
496.843	126.25
497.423	114.25
498.003	117.25
498.583	114.25
499.163	107.25
499.742	109.25
500.322	103.25
500.902	96.25
501.482	102.25
502.061	93.25
502.641	100.25
503.22	93.25
503.8	86.25
504.379	83.25
504.958	90.25
505.538	81.25
506.117	82.25
506.696	72.25
507.275	82.25
507.854	84.25
508.433	76.25
509.012	83.25
509.591	83.25
510.169	89.25
510.748	80.25
511.327	78.25
511.905	81.25
512.484	87.25
513.062	94.25
513.641	100.25
514.219	103.25
514.797	100.25
515.375	109.25
515.954	112.25
516.532	115.25
517.11	126.25
517.688	140.25
518.266	146.25
518.843	144.25
519.421	156.25
519.999	166.25
520.577	177.25
521.154	191.25
521.732	199.25
522.309	195.25
522.887	204.25
523.464	218.25
524.041	231.25
524.619	225.25
525.196	231.25
525.773	252.25
526.35	245.25
526.927	249.25
527.504	273.25
528.081	265.25
528.658	271.25
529.235	268.25
529.811	286.25
530.388	284.25
530.964	296.25
531.541	292.25
532.117	288.25
532.694	285.25
533.27	289.25
533.846	287.25
534.423	291.25
534.999	292.25
535.575	279.25
536.151	274.25
536.727	282.25
537.303	278.25
537.879	276.25
538.455	281.25
539.03	276.25
539.606	270.25
540.182	283.25
540.757	273.25
541.333	270.25
541.908	265.25
542.483	270.25
543.059	265.25
543.634	258.25
544.209	265.25
544.784	248.25
545.359	255.25
545.934	256.25
546.509	241.25
547.084	242.25
547.659	238.25
548.234	234.25
548.808	239.25
549.383	242.25
549.958	237.25
550.532	225.25
551.107	231.25
551.681	224.25
552.255	225.25
552.83	225.25
553.404	217.25
553.978	222.25
554.552	219.25
555.126	222.25
555.7	230.25
556.274	220.25
556.848	225.25
557.422	219.25
557.995	218.25
558.569	232.25
559.143	235.25
559.716	231.25
560.29	238.25
560.863	241.25
561.437	245.25
562.01	249.25
562.583	252.25
563.156	257.25
563.729	260.25
564.302	259.25
564.875	263.25
565.448	264.25
566.021	262.25
566.594	265.25
567.167	278.25
567.74	281.25
568.312	277.25
568.885	280.25
569.457	279.25
570.03	280.25
570.602	292.25
571.174	292.25
571.747	281.25
572.319	282.25
572.891	295.25
573.463	294.25
574.035	277.25
574.607	283.25
575.179	292.25
575.751	293.25
576.323	269.25
576.894	296.25
577.466	293.25
578.038	296.25
578.609	294.25
579.181	287.25
579.752	292.25
580.323	294.25
580.895	281.25
581.466	290.25
582.037	286.25
582.608	290.25
583.179	280.25
583.75	295.25
584.321	286.25
584.892	291.25
585.463	282.25
586.033	291.25
586.604	293.25
587.175	306.25
587.745	303.25
588.316	318.25
588.886	299.25
589.457	297.25
590.027	310.25
590.597	308.25
591.167	301.25
591.737	300.25
592.308	295.25
592.878	285.25
593.447	295.25
594.017	290.25
594.587	298.25
595.157	295.25
595.727	279.25
596.296	282.25
596.866	287.25
597.435	267.25
598.005	280.25
598.574	283.25
599.143	270.25
599.713	281.25
600.282	273.25
600.851	264.25
601.42	268.25
601.989	263.25
602.558	275.25
603.127	257.25
603.696	261.25
604.265	258.25
604.833	262.25
605.402	260.25
605.971	263.25
606.539	262.25
607.108	246.25
607.676	261.25
608.244	260.25
608.813	258.25
609.381	260.25
609.949	252.25
610.517	253.25
611.085	254.25
611.653	263.25
612.221	249.25
612.789	250.25
613.357	255.25
613.924	262.25
614.492	254.25
615.06	251.25
615.627	250.25
616.195	253.25
616.762	253.25
617.329	250.25
617.897	251.25
618.464	253.25
619.031	247.25
619.598	243.25
620.165	242.25
620.732	248.25
621.299	258.25
621.866	247.25
622.433	236.25
623	241.25
623.566	235.25
624.133	236.25
624.7	241.25
625.266	245.25
625.832	246.25
626.399	230.25
626.965	234.25
627.531	234.25
628.098	226.25
628.664	243.25
629.23	238.25
629.796	231.25
630.362	229.25
630.928	227.25
631.493	227.25
632.059	217.25
632.625	237.25
633.19	215.25
633.756	224.25
634.322	222.25
634.887	218.25
635.452	207.25
636.018	211.25
636.583	209.25
637.148	214.25
637.713	219.25
638.278	212.25
638.843	210.25
639.408	202.25
639.973	201.25
640.538	202.25
641.103	203.25
641.667	197.25
642.232	195.25
642.797	197.25
643.361	194.25
643.926	188.25
644.49	187.25
645.054	188.25
645.619	192.25
646.183	189.25
646.747	178.25
647.311	182.25
647.875	175.25
648.439	177.25
649.003	177.25
649.567	182.25
650.131	173.25
650.694	170.25
651.258	171.25
651.822	177.25
652.385	160.25
652.949	162.25
653.512	167.25
654.075	165.25
654.639	161.25
655.202	168.25
655.765	170.25
656.328	157.25
656.891	161.25
657.454	157.25
658.017	162.25
658.58	159.25
659.143	144.25
659.705	147.25
660.268	149.25
660.83	147.25
661.393	138.25
661.955	151.25
662.518	143.25
663.08	140.25
663.643	140.25
664.205	150.25
664.767	142.25
665.329	142.25
665.891	151.25
666.453	133.25
667.015	131.25
667.577	125.25
668.139	133.25
668.7	130.25
669.262	127.25
669.824	130.25
670.385	128.25
670.947	126.25
671.508	125.25
672.069	121.25
672.631	114.25
673.192	122.25
673.753	123.25
674.314	121.25
674.875	115.25
675.436	121.25
675.997	115.25
676.558	113.25
677.119	118.25
677.679	117.25
678.24	115.25
678.801	107.25
679.361	109.25
679.922	107.25
680.482	110.25
681.042	115.25
681.603	113.25
682.163	107.25
682.723	117.25
683.283	112.25
683.843	110.25
684.403	105.25
684.963	98.25
685.523	107.25
686.083	108.25
686.642	100.25
687.202	102.25
687.762	103.25
688.321	99.25
688.881	100.25
689.44	92.25
690	96.25
690.559	91.25
691.118	97.25
691.677	90.25
692.236	89.25
692.795	86.25
693.354	82.25
693.913	91.25
694.472	87.25
695.031	82.25
695.59	84.25
696.148	80.25
696.707	80.25
697.265	73.25
697.824	73.25
698.382	73.25
698.941	76.25
699.499	76.25
700.057	72.25
700.615	65.25
701.173	68.25
701.731	72.25
702.289	67.25
702.847	65.25
703.405	72.25
703.963	67.25
704.521	70.25
705.078	69.25
705.636	64.25
706.194	69.25
706.751	64.25
707.308	64.25
707.866	65.25
708.423	60.25
708.98	69.25
709.537	61.25
710.095	59.25
710.652	58.25
711.209	60.25
711.765	59.25
712.322	56.25
712.879	61.25
713.436	56.25
713.992	52.25
714.549	50.25
715.106	54.25
715.662	54.25
716.218	52.25
716.775	52.25
717.331	48.25
717.887	58.25
718.443	47.25
719	48.25
719.556	48.25
720.112	42.25
720.667	45.25
721.223	46.25
721.779	46.25
722.335	35.25
722.89	41.25
723.446	37.25
724.002	41.25
724.557	37.25
725.112	39.25
725.668	40.25
726.223	38.25
726.778	37.25
727.333	37.25
727.888	35.25
728.443	39.25
728.998	38.25
729.553	42.25
730.108	34.25
730.663	41.25
731.218	34.25
731.772	36.25
732.327	31.25
732.881	34.25
733.436	38.25
733.99	33.25
734.545	32.25
735.099	35.25
735.653	34.25
736.207	30.25
736.761	33.25
737.315	36.25
737.869	36.25
738.423	29.25
738.977	26.25
739.531	24.25
740.084	28.25
740.638	26.25
741.192	29.25
741.745	27.25
742.299	28.25
742.852	25.25
743.405	27.25
743.959	27.25
744.512	29.25
745.065	28.25
745.618	24.25
746.171	22.25
746.724	27.25
747.277	23.25
747.83	19.25
748.382	24.25
748.935	27.25
749.488	21.25
750.04	25.25
750.593	22.25
751.145	21.25
751.698	21.25
752.25	21.25
752.802	25.25
753.354	22.25
753.906	18.25
754.458	24.25
755.01	25.25
755.562	20.25
756.114	22.25
756.666	17.25
757.218	20.25
757.769	15.25
758.321	17.25
758.873	20.25
759.424	20.25
759.975	19.25
760.527	20.25
761.078	16.25
761.629	18.25
762.181	19.25
762.732	18.25
763.283	18.25
763.834	14.25
764.385	13.25
764.935	13.25
765.486	13.25
766.037	15.25
766.588	11.25
767.138	16.25
767.689	12.25
768.239	15.25
768.79	14.25
769.34	15.25
769.89	14.25
770.44	11.25
770.991	14.25
771.541	14.25
772.091	16.25
772.641	14.25
773.191	8.25
773.74	13.25
774.29	9.25
774.84	15.25
775.39	8.25
775.939	14.25
776.489	17.25
777.038	14.25
777.588	13.25
778.137	13.25
778.686	15.25
779.235	15.25
779.784	8.25
780.334	13.25
780.883	12.25
781.431	13.25
781.98	13.25
782.529	15.25
783.078	13.25
783.627	13.25
784.175	13.25
784.724	11.25
785.272	7.25
785.821	8.25
786.369	9.25
786.917	8.25
787.466	9.25
788.014	12.25
788.562	11.25
789.11	13.25
789.658	8.25
790.206	13.25
790.754	8.25
791.302	12.25
791.849	10.25
792.397	6.25
792.945	8.25
793.492	13.25
794.04	9.25
794.587	7.25
795.134	7.25
795.682	10.25
796.229	6.25
796.776	8.25
797.323	8.25
797.87	7.25
798.417	4.25
798.964	10.25
799.511	15.25
800.058	6.25
800.604	3.25
801.151	6.25
801.698	5.25
802.244	6.25
802.791	10.25
803.337	5.25
803.883	9.25
804.43	10.25
804.976	5.25
805.522	5.25
806.068	2.25
806.614	6.25
807.16	6.25
807.706	3.25
808.252	8.25
808.797	9.25
809.343	6.25
809.889	2.25
810.434	6.25
810.98	4.25
811.525	3.25
812.071	4.25
812.616	7.25
813.161	8.25
813.706	4.25
814.252	5.25
814.797	0.25
815.342	5.25
815.886	5.25
816.431	1.25
816.976	3.25
817.521	1.25
818.066	1.25
818.61	8.25
819.155	8.25
819.699	1.25
820.244	4.25
820.788	3.25
821.332	4.25
821.876	0.25
822.421	2.25
822.965	2.25
823.509	4.25
824.053	2.25
824.597	6.25
825.14	6.25
825.684	2.25
826.228	4.25
826.771	1.25
827.315	2.25
827.859	1.25
828.402	5.25
828.945	4.25
829.489	1.25
830.032	8.25
830.575	1.25
831.118	5.25
831.661	-1.75
832.204	4.25
832.747	0.25
833.29	3.25
833.833	4.25
834.376	3.25
834.918	4.25
835.461	3.25
836.004	5.25
836.546	0.25
837.088	8.25
837.631	2.25
838.173	-0.75
838.715	5.25
839.257	3.25
839.8	4.25
840.342	3.25
840.884	2.25
841.425	2.25
841.967	5.25
842.509	0.25
843.051	-0.75
843.592	6.25
844.134	0.25
844.676	4.25
845.217	0.25
845.758	4.25
846.3	1.25
846.841	1.25
847.382	1.25
847.923	-1.75
848.464	2.25
849.005	0.25
849.546	2.25
850.087	1.25
850.628	5.25
851.169	1.25
851.709	2.25
852.25	5.25
852.791	1.25
853.331	3.25
853.871	1.25
854.412	2.25
854.952	3.25
855.492	3.25
856.033	-3.75
856.573	4.25
857.113	-0.75
857.653	2.25
858.193	3.25
858.732	1.25
859.272	2.25
859.812	4.25
860.352	-0.75
860.891	2.25
861.431	2.25
861.97	3.25
862.509	0.25
863.049	1.25
863.588	1.25
864.127	0.25
864.666	3.25
865.205	0.25
865.744	1.25
866.283	1.25
866.822	-3.75
867.361	-0.75
867.9	3.25
868.438	-0.75
868.977	-3.75
869.516	5.25
870.054	-1.75
870.593	1.25
871.131	5.25
871.669	1.25
872.207	-0.75
872.746	1.25
873.284	2.25
873.822	0.25
874.36	1.25
874.898	-2.75
875.435	1.25
875.973	0.25
876.511	0.25
877.048	0.25
877.586	1.25
878.124	3.25
878.661	-1.75
879.198	-2.75
879.736	1.25
880.273	3.25
880.81	0.25
881.347	1.25
881.884	-0.75
882.421	0.25
882.958	-1.75
883.495	-3.75
884.032	2.25
884.569	-0.75
885.105	-2.75
885.642	2.25
886.178	3.25
886.715	0.25
887.251	3.25
887.788	0.25
888.324	2.25
888.86	-0.75
889.396	1.25
889.932	-2.75
890.468	1.25
891.004	-0.75
891.54	3.25
892.076	2.25
892.612	-1.75
893.147	-2.75
893.683	0.25
894.219	4.25
894.754	-0.75
895.29	-2.75
895.825	-0.75
896.36	-1.75
896.896	5.25
897.431	0.25
897.966	-0.75
898.501	-1.75
899.036	-2.75
899.571	-2.75
900.106	1.25
900.64	-1.75
901.175	-1.75
901.71	-2.75
902.244	1.25
902.779	2.25
903.313	1.25
903.848	0.25
904.382	-1.75
904.916	0.25
905.45	1.25
905.985	3.25
906.519	-2.75
907.053	0.25
907.587	1.25
908.12	1.25
908.654	0.25
909.188	2.25
909.722	1.25
910.255	-1.75
910.789	0.25
911.322	0.25
911.856	-3.75
912.389	3.25
912.922	0.25
913.456	2.25
913.989	-0.75
914.522	-0.75
915.055	2.25
915.588	-0.75
916.121	0.25
916.653	-1.75
917.186	4.25
917.719	-0.75
918.252	3.25
918.784	-1.75
919.317	4.25
919.849	1.25
920.381	0.25
920.914	0.25
921.446	2.25
921.978	2.25
922.51	-0.75
923.042	-0.75
923.574	1.25
924.106	-1.75
924.638	0.25
925.17	-3.75
925.701	0.25
926.233	-0.75
926.765	-0.75
927.296	3.25
927.828	-0.75
928.359	-0.75
928.89	-2.75
929.422	1.25
929.953	-1.75
930.484	-3.75
931.015	-0.75
931.546	1.25
932.077	0.25
932.608	2.25
933.138	1.25
933.669	-2.75
934.2	-2.75
934.73	-0.75
935.261	-3.75
