Data from LOOPyPMA-1_QEP046991__34__18-11-43-758.txt Node

Date: Sun May 11 18:11:43 CEST 2025
User: superuser
Spectrometer: QEP04699
Trigger mode: 4
Integration Time (sec): 1.000000E-1
Scans to average: 1
Electric dark correction enabled: true
Nonlinearity correction enabled: false
Boxcar width: 0
XAxis mode: Wavelengths
Number of Pixels in Spectrum: 1044
>>>>>Begin Spectral Data<<<<<
347.57	10.38
348.165	0.38
348.76	0.38
349.355	-2.62
349.95	0.38
350.545	-2.62
351.14	-3.62
351.735	3.38
352.33	2.38
352.924	2.38
353.519	1.38
354.114	0.38
354.708	3.38
355.303	2.38
355.897	-2.62
356.491	1.38
357.086	1.38
357.68	0.38
358.274	5.38
358.868	2.38
359.462	1.38
360.056	1.38
360.65	-1.62
361.244	-0.62
361.838	-0.62
362.431	2.38
363.025	3.38
363.619	3.38
364.212	-1.62
364.806	2.38
365.399	1.38
365.993	3.38
366.586	2.38
367.179	6.38
367.772	1.38
368.366	0.38
368.959	-0.62
369.552	-0.62
370.145	2.38
370.738	-0.62
371.331	0.38
371.923	5.38
372.516	0.38
373.109	2.38
373.701	-1.62
374.294	6.38
374.887	2.38
375.479	2.38
376.071	-0.62
376.664	-1.62
377.256	-0.62
377.848	0.38
378.44	4.38
379.033	-0.62
379.625	2.38
380.217	1.38
380.808	1.38
381.4	0.38
381.992	1.38
382.584	-0.62
383.176	-2.62
383.767	0.38
384.359	1.38
384.95	-2.62
385.542	4.38
386.133	2.38
386.725	1.38
387.316	2.38
387.907	-1.62
388.498	-0.62
389.089	4.38
389.68	5.38
390.271	2.38
390.862	2.38
391.453	1.38
392.044	2.38
392.635	1.38
393.225	0.38
393.816	2.38
394.407	1.38
394.997	0.38
395.588	1.38
396.178	0.38
396.768	-0.62
397.359	2.38
397.949	0.38
398.539	3.38
399.129	1.38
399.719	-1.62
400.309	3.38
400.899	1.38
401.489	3.38
402.079	3.38
402.668	-1.62
403.258	3.38
403.848	5.38
404.437	4.38
405.027	1.38
405.616	6.38
406.206	5.38
406.795	4.38
407.384	4.38
407.973	7.38
408.563	5.38
409.152	0.38
409.741	3.38
410.33	4.38
410.919	6.38
411.508	-0.62
412.096	3.38
412.685	0.38
413.274	4.38
413.862	4.38
414.451	9.38
415.039	3.38
415.628	5.38
416.216	11.38
416.805	7.38
417.393	6.38
417.981	9.38
418.569	12.38
419.157	11.38
419.745	12.38
420.333	13.38
420.921	14.38
421.509	15.38
422.097	15.38
422.685	17.38
423.272	23.38
423.86	23.38
424.447	23.38
425.035	25.38
425.622	29.38
426.21	23.38
426.797	27.38
427.384	30.38
427.972	33.38
428.559	33.38
429.146	43.38
429.733	44.38
430.32	44.38
430.907	48.38
431.494	48.38
432.08	52.38
432.667	56.38
433.254	66.38
433.84	73.38
434.427	77.38
435.013	74.38
435.6	83.38
436.186	89.38
436.772	94.38
437.359	107.38
437.945	110.38
438.531	128.38
439.117	133.38
439.703	136.38
440.289	156.38
440.875	171.38
441.461	184.38
442.047	194.38
442.632	205.38
443.218	228.38
443.804	242.38
444.389	269.38
444.975	292.38
445.56	304.38
446.145	333.38
446.731	353.38
447.316	374.38
447.901	401.38
448.486	439.38
449.071	469.38
449.656	503.38
450.241	544.38
450.826	582.38
451.411	618.38
451.996	664.38
452.58	716.38
453.165	756.38
453.75	822.38
454.334	893.38
454.919	964.38
455.503	1044.38
456.087	1114.38
456.672	1176.38
457.256	1298.38
457.84	1369.38
458.424	1477.38
459.008	1588.38
459.592	1649.38
460.176	1741.38
460.76	1875.38
461.344	1956.38
461.927	2004.38
462.511	2102.38
463.095	2158.38
463.678	2213.38
464.262	2219.38
464.845	2239.38
465.429	2237.38
466.012	2221.38
466.595	2194.38
467.178	2168.38
467.762	2054.38
468.345	2020.38
468.928	1936.38
469.511	1840.38
470.094	1763.38
470.676	1597.38
471.259	1512.38
471.842	1419.38
472.425	1322.38
473.007	1233.38
473.59	1161.38
474.172	1082.38
474.755	1014.38
475.337	937.38
475.919	902.38
476.502	836.38
477.084	807.38
477.666	759.38
478.248	727.38
478.83	687.38
479.412	642.38
479.994	605.38
480.576	591.38
481.157	552.38
481.739	530.38
482.321	490.38
482.902	480.38
483.484	443.38
484.065	423.38
484.647	395.38
485.228	369.38
485.809	364.38
486.391	331.38
486.972	310.38
487.553	296.38
488.134	265.38
488.715	258.38
489.296	227.38
489.877	213.38
490.458	200.38
491.038	196.38
491.619	183.38
492.2	173.38
492.78	162.38
493.361	149.38
493.941	140.38
494.522	141.38
495.102	136.38
495.682	132.38
496.262	124.38
496.843	121.38
497.423	117.38
498.003	112.38
498.583	111.38
499.163	103.38
499.742	106.38
500.322	104.38
500.902	95.38
501.482	97.38
502.061	94.38
502.641	91.38
503.22	86.38
503.8	94.38
504.379	80.38
504.958	79.38
505.538	84.38
506.117	77.38
506.696	76.38
507.275	77.38
507.854	81.38
508.433	83.38
509.012	74.38
509.591	76.38
510.169	82.38
510.748	89.38
511.327	86.38
511.905	84.38
512.484	87.38
513.062	96.38
513.641	104.38
514.219	106.38
514.797	102.38
515.375	116.38
515.954	112.38
516.532	125.38
517.11	135.38
517.688	146.38
518.266	149.38
518.843	161.38
519.421	162.38
519.999	162.38
520.577	182.38
521.154	191.38
521.732	200.38
522.309	219.38
522.887	214.38
523.464	230.38
524.041	220.38
524.619	240.38
525.196	246.38
525.773	259.38
526.35	261.38
526.927	266.38
527.504	271.38
528.081	273.38
528.658	294.38
529.235	286.38
529.811	292.38
530.388	295.38
530.964	292.38
531.541	296.38
532.117	290.38
532.694	290.38
533.27	298.38
533.846	296.38
534.423	303.38
534.999	291.38
535.575	304.38
536.151	294.38
536.727	290.38
537.303	289.38
537.879	298.38
538.455	285.38
539.03	280.38
539.606	296.38
540.182	288.38
540.757	283.38
541.333	270.38
541.908	276.38
542.483	271.38
543.059	275.38
543.634	268.38
544.209	268.38
544.784	263.38
545.359	258.38
545.934	263.38
546.509	256.38
547.084	245.38
547.659	253.38
548.234	254.38
548.808	252.38
549.383	239.38
549.958	253.38
550.532	247.38
551.107	247.38
551.681	239.38
552.255	226.38
552.83	241.38
553.404	245.38
553.978	233.38
554.552	233.38
555.126	237.38
555.7	236.38
556.274	240.38
556.848	235.38
557.422	236.38
557.995	239.38
558.569	240.38
559.143	240.38
559.716	239.38
560.29	247.38
560.863	238.38
561.437	257.38
562.01	267.38
562.583	256.38
563.156	263.38
563.729	262.38
564.302	276.38
564.875	276.38
565.448	277.38
566.021	279.38
566.594	288.38
567.167	289.38
567.74	297.38
568.312	293.38
568.885	296.38
569.457	300.38
570.03	294.38
570.602	300.38
571.174	296.38
571.747	313.38
572.319	305.38
572.891	309.38
573.463	307.38
574.035	305.38
574.607	312.38
575.179	305.38
575.751	301.38
576.323	297.38
576.894	306.38
577.466	294.38
578.038	301.38
578.609	283.38
579.181	301.38
579.752	296.38
580.323	295.38
580.895	302.38
581.466	291.38
582.037	306.38
582.608	301.38
583.179	310.38
583.75	302.38
584.321	306.38
584.892	312.38
585.463	319.38
586.033	315.38
586.604	314.38
587.175	315.38
587.745	322.38
588.316	310.38
588.886	318.38
589.457	320.38
590.027	324.38
590.597	320.38
591.167	321.38
591.737	321.38
592.308	308.38
592.878	301.38
593.447	311.38
594.017	311.38
594.587	300.38
595.157	299.38
595.727	318.38
596.296	300.38
596.866	291.38
597.435	292.38
598.005	294.38
598.574	294.38
599.143	296.38
599.713	292.38
600.282	278.38
600.851	283.38
601.42	287.38
601.989	278.38
602.558	281.38
603.127	282.38
603.696	273.38
604.265	279.38
604.833	284.38
605.402	267.38
605.971	277.38
606.539	271.38
607.108	266.38
607.676	274.38
608.244	279.38
608.813	260.38
609.381	268.38
609.949	270.38
610.517	278.38
611.085	263.38
611.653	274.38
612.221	270.38
612.789	264.38
613.357	267.38
613.924	268.38
614.492	249.38
615.06	268.38
615.627	265.38
616.195	269.38
616.762	266.38
617.329	273.38
617.897	259.38
618.464	265.38
619.031	259.38
619.598	254.38
620.165	268.38
620.732	263.38
621.299	263.38
621.866	261.38
622.433	263.38
623	254.38
623.566	257.38
624.133	252.38
624.7	262.38
625.266	248.38
625.832	250.38
626.399	247.38
626.965	249.38
627.531	254.38
628.098	249.38
628.664	251.38
629.23	243.38
629.796	253.38
630.362	241.38
630.928	228.38
631.493	236.38
632.059	249.38
632.625	241.38
633.19	232.38
633.756	231.38
634.322	229.38
634.887	228.38
635.452	228.38
636.018	238.38
636.583	223.38
637.148	227.38
637.713	226.38
638.278	221.38
638.843	208.38
639.408	214.38
639.973	216.38
640.538	212.38
641.103	213.38
641.667	215.38
642.232	212.38
642.797	211.38
643.361	210.38
643.926	208.38
644.49	201.38
645.054	195.38
645.619	193.38
646.183	196.38
646.747	196.38
647.311	199.38
647.875	195.38
648.439	192.38
649.003	187.38
649.567	193.38
650.131	195.38
650.694	183.38
651.258	180.38
651.822	186.38
652.385	175.38
652.949	183.38
653.512	182.38
654.075	169.38
654.639	179.38
655.202	175.38
655.765	173.38
656.328	165.38
656.891	174.38
657.454	176.38
658.017	159.38
658.58	164.38
659.143	154.38
659.705	159.38
660.268	161.38
660.83	162.38
661.393	156.38
661.955	152.38
662.518	156.38
663.08	147.38
663.643	145.38
664.205	152.38
664.767	145.38
665.329	147.38
665.891	140.38
666.453	140.38
667.015	145.38
667.577	147.38
668.139	139.38
668.7	140.38
669.262	130.38
669.824	130.38
670.385	131.38
670.947	139.38
671.508	124.38
672.069	129.38
672.631	131.38
673.192	125.38
673.753	123.38
674.314	127.38
674.875	121.38
675.436	134.38
675.997	128.38
676.558	122.38
677.119	124.38
677.679	124.38
678.24	119.38
678.801	123.38
679.361	119.38
679.922	120.38
680.482	118.38
681.042	116.38
681.603	110.38
682.163	122.38
682.723	117.38
683.283	108.38
683.843	119.38
684.403	109.38
684.963	114.38
685.523	105.38
686.083	103.38
686.642	109.38
687.202	103.38
687.762	103.38
688.321	99.38
688.881	98.38
689.44	97.38
690	102.38
690.559	93.38
691.118	94.38
691.677	97.38
692.236	98.38
692.795	87.38
693.354	87.38
693.913	89.38
694.472	88.38
695.031	87.38
695.59	83.38
696.148	83.38
696.707	79.38
697.265	79.38
697.824	82.38
698.382	80.38
698.941	76.38
699.499	77.38
700.057	76.38
700.615	77.38
701.173	81.38
701.731	74.38
702.289	71.38
702.847	72.38
703.405	78.38
703.963	78.38
704.521	71.38
705.078	73.38
705.636	67.38
706.194	70.38
706.751	67.38
707.308	71.38
707.866	62.38
708.423	65.38
708.98	67.38
709.537	66.38
710.095	64.38
710.652	58.38
711.209	54.38
711.765	62.38
712.322	62.38
712.879	57.38
713.436	61.38
713.992	60.38
714.549	53.38
715.106	57.38
715.662	54.38
716.218	59.38
716.775	54.38
717.331	53.38
717.887	48.38
718.443	53.38
719	56.38
719.556	43.38
720.112	43.38
720.667	43.38
721.223	47.38
721.779	52.38
722.335	46.38
722.89	52.38
723.446	46.38
724.002	40.38
724.557	44.38
725.112	41.38
725.668	40.38
726.223	45.38
726.778	41.38
727.333	41.38
727.888	47.38
728.443	39.38
728.998	41.38
729.553	39.38
730.108	39.38
730.663	35.38
731.218	35.38
731.772	36.38
732.327	35.38
732.881	34.38
733.436	36.38
733.99	41.38
734.545	30.38
735.099	39.38
735.653	37.38
736.207	39.38
736.761	34.38
737.315	33.38
737.869	36.38
738.423	34.38
738.977	32.38
739.531	30.38
740.084	30.38
740.638	35.38
741.192	31.38
741.745	33.38
742.299	35.38
742.852	29.38
743.405	26.38
743.959	34.38
744.512	31.38
745.065	30.38
745.618	30.38
746.171	28.38
746.724	27.38
747.277	27.38
747.83	23.38
748.382	27.38
748.935	26.38
749.488	23.38
750.04	23.38
750.593	26.38
751.145	23.38
751.698	28.38
752.25	20.38
752.802	30.38
753.354	25.38
753.906	24.38
754.458	20.38
755.01	22.38
755.562	22.38
756.114	22.38
756.666	20.38
757.218	20.38
757.769	21.38
758.321	23.38
758.873	21.38
759.424	19.38
759.975	17.38
760.527	19.38
761.078	17.38
761.629	19.38
762.181	22.38
762.732	15.38
763.283	15.38
763.834	20.38
764.385	17.38
764.935	17.38
765.486	20.38
766.037	14.38
766.588	21.38
767.138	13.38
767.689	16.38
768.239	20.38
768.79	13.38
769.34	13.38
769.89	18.38
770.44	18.38
770.991	14.38
771.541	19.38
772.091	18.38
772.641	18.38
773.191	14.38
773.74	16.38
774.29	15.38
774.84	21.38
775.39	13.38
775.939	18.38
776.489	13.38
777.038	18.38
777.588	15.38
778.137	16.38
778.686	14.38
779.235	13.38
779.784	16.38
780.334	15.38
780.883	13.38
781.431	10.38
781.98	16.38
782.529	16.38
783.078	15.38
783.627	12.38
784.175	12.38
784.724	12.38
785.272	11.38
785.821	10.38
786.369	12.38
786.917	14.38
787.466	8.38
788.014	9.38
788.562	10.38
789.11	13.38
789.658	10.38
790.206	12.38
790.754	8.38
791.302	11.38
791.849	10.38
792.397	8.38
792.945	11.38
793.492	8.38
794.04	12.38
794.587	12.38
795.134	8.38
795.682	11.38
796.229	11.38
796.776	10.38
797.323	5.38
797.87	6.38
798.417	6.38
798.964	11.38
799.511	6.38
800.058	6.38
800.604	7.38
801.151	7.38
801.698	9.38
802.244	12.38
802.791	6.38
803.337	9.38
803.883	8.38
804.43	7.38
804.976	6.38
805.522	11.38
806.068	7.38
806.614	6.38
807.16	4.38
807.706	8.38
808.252	8.38
808.797	10.38
809.343	7.38
809.889	4.38
810.434	6.38
810.98	10.38
811.525	9.38
812.071	9.38
812.616	3.38
813.161	4.38
813.706	4.38
814.252	10.38
814.797	4.38
815.342	7.38
815.886	4.38
816.431	6.38
816.976	6.38
817.521	9.38
818.066	7.38
818.61	4.38
819.155	8.38
819.699	9.38
820.244	3.38
820.788	5.38
821.332	4.38
821.876	7.38
822.421	3.38
822.965	3.38
823.509	7.38
824.053	5.38
824.597	5.38
825.14	1.38
825.684	2.38
826.228	1.38
826.771	8.38
827.315	4.38
827.859	4.38
828.402	7.38
828.945	7.38
829.489	6.38
830.032	7.38
830.575	5.38
831.118	4.38
831.661	5.38
832.204	2.38
832.747	5.38
833.29	6.38
833.833	4.38
834.376	6.38
834.918	1.38
835.461	3.38
836.004	3.38
836.546	5.38
837.088	8.38
837.631	3.38
838.173	5.38
838.715	6.38
839.257	4.38
839.8	6.38
840.342	3.38
840.884	5.38
841.425	4.38
841.967	4.38
842.509	2.38
843.051	0.38
843.592	4.38
844.134	1.38
844.676	4.38
845.217	4.38
845.758	4.38
846.3	3.38
846.841	3.38
847.382	4.38
847.923	5.38
848.464	2.38
849.005	5.38
849.546	3.38
850.087	2.38
850.628	5.38
851.169	4.38
851.709	3.38
852.25	6.38
852.791	5.38
853.331	3.38
853.871	3.38
854.412	3.38
854.952	3.38
855.492	3.38
856.033	2.38
856.573	2.38
857.113	2.38
857.653	4.38
858.193	4.38
858.732	0.38
859.272	7.38
859.812	3.38
860.352	2.38
860.891	-1.62
861.431	5.38
861.97	3.38
862.509	1.38
863.049	2.38
863.588	0.38
864.127	2.38
864.666	5.38
865.205	-0.62
865.744	2.38
866.283	2.38
866.822	2.38
867.361	4.38
867.9	2.38
868.438	0.38
868.977	1.38
869.516	3.38
870.054	0.38
870.593	1.38
871.131	2.38
871.669	-1.62
872.207	0.38
872.746	3.38
873.284	2.38
873.822	2.38
874.36	0.38
874.898	-1.62
875.435	0.38
875.973	-3.62
876.511	1.38
877.048	1.38
877.586	5.38
878.124	3.38
878.661	1.38
879.198	4.38
879.736	4.38
880.273	1.38
880.81	0.38
881.347	0.38
881.884	0.38
882.421	0.38
882.958	1.38
883.495	2.38
884.032	3.38
884.569	4.38
885.105	3.38
885.642	2.38
886.178	4.38
886.715	1.38
887.251	-2.62
887.788	3.38
888.324	-3.62
888.86	-1.62
889.396	0.38
889.932	4.38
890.468	3.38
891.004	2.38
891.54	-2.62
892.076	0.38
892.612	4.38
893.147	0.38
893.683	0.38
894.219	1.38
894.754	1.38
895.29	2.38
895.825	5.38
896.36	0.38
896.896	0.38
897.431	0.38
897.966	0.38
898.501	4.38
899.036	2.38
899.571	0.38
900.106	-2.62
900.64	2.38
901.175	-1.62
901.71	3.38
902.244	3.38
902.779	1.38
903.313	-1.62
903.848	1.38
904.382	-0.62
904.916	-0.62
905.45	1.38
905.985	4.38
906.519	-0.62
907.053	-1.62
907.587	-1.62
908.12	1.38
908.654	0.38
909.188	3.38
909.722	2.38
910.255	1.38
910.789	3.38
911.322	0.38
911.856	1.38
912.389	2.38
912.922	4.38
913.456	-1.62
913.989	-0.62
914.522	0.38
915.055	1.38
915.588	4.38
916.121	0.38
916.653	3.38
917.186	1.38
917.719	-1.62
918.252	-2.62
918.784	2.38
919.317	4.38
919.849	3.38
920.381	1.38
920.914	-0.62
921.446	-0.62
921.978	0.38
922.51	1.38
923.042	3.38
923.574	4.38
924.106	5.38
924.638	1.38
925.17	-2.62
925.701	1.38
926.233	0.38
926.765	0.38
927.296	0.38
927.828	-0.62
928.359	-3.62
928.89	1.38
929.422	3.38
929.953	2.38
930.484	-0.62
931.015	-0.62
931.546	-0.62
932.077	0.38
932.608	-4.62
933.138	1.38
933.669	-3.62
934.2	-1.62
934.73	-1.62
935.261	-1.62
