Data from LOOPyPMA-1_QEP046991__16__18-11-25-757.txt Node

Date: Sun May 11 18:11:25 CEST 2025
User: superuser
Spectrometer: QEP04699
Trigger mode: 4
Integration Time (sec): 1.000000E-1
Scans to average: 1
Electric dark correction enabled: true
Nonlinearity correction enabled: false
Boxcar width: 0
XAxis mode: Wavelengths
Number of Pixels in Spectrum: 1044
>>>>>Begin Spectral Data<<<<<
347.57	12.25
348.165	1.25
348.76	-1.75
349.355	-1.75
349.95	-3.75
350.545	-0.75
351.14	3.25
351.735	1.25
352.33	3.25
352.924	0.25
353.519	2.25
354.114	7.25
354.708	-4.75
355.303	5.25
355.897	-4.75
356.491	1.25
357.086	-0.75
357.68	1.25
358.274	4.25
358.868	-0.75
359.462	-0.75
360.056	-1.75
360.65	2.25
361.244	0.25
361.838	1.25
362.431	2.25
363.025	1.25
363.619	2.25
364.212	0.25
364.806	4.25
365.399	7.25
365.993	3.25
366.586	2.25
367.179	1.25
367.772	0.25
368.366	3.25
368.959	2.25
369.552	1.25
370.145	1.25
370.738	2.25
371.331	3.25
371.923	2.25
372.516	-0.75
373.109	2.25
373.701	3.25
374.294	2.25
374.887	0.25
375.479	6.25
376.071	3.25
376.664	1.25
377.256	0.25
377.848	3.25
378.44	3.25
379.033	1.25
379.625	1.25
380.217	3.25
380.808	2.25
381.4	4.25
381.992	4.25
382.584	6.25
383.176	2.25
383.767	3.25
384.359	3.25
384.95	0.25
385.542	0.25
386.133	4.25
386.725	5.25
387.316	3.25
387.907	6.25
388.498	5.25
389.089	4.25
389.68	3.25
390.271	-1.75
390.862	3.25
391.453	2.25
392.044	1.25
392.635	3.25
393.225	3.25
393.816	4.25
394.407	3.25
394.997	3.25
395.588	3.25
396.178	1.25
396.768	2.25
397.359	3.25
397.949	3.25
398.539	3.25
399.129	5.25
399.719	5.25
400.309	3.25
400.899	4.25
401.489	3.25
402.079	4.25
402.668	7.25
403.258	1.25
403.848	3.25
404.437	7.25
405.027	4.25
405.616	4.25
406.206	1.25
406.795	4.25
407.384	4.25
407.973	5.25
408.563	7.25
409.152	6.25
409.741	6.25
410.33	5.25
410.919	8.25
411.508	4.25
412.096	7.25
412.685	6.25
413.274	2.25
413.862	7.25
414.451	5.25
415.039	10.25
415.628	6.25
416.216	12.25
416.805	7.25
417.393	11.25
417.981	10.25
418.569	13.25
419.157	15.25
419.745	20.25
420.333	10.25
420.921	13.25
421.509	20.25
422.097	19.25
422.685	14.25
423.272	20.25
423.86	24.25
424.447	24.25
425.035	25.25
425.622	19.25
426.21	19.25
426.797	30.25
427.384	30.25
427.972	34.25
428.559	35.25
429.146	33.25
429.733	40.25
430.32	45.25
430.907	52.25
431.494	52.25
432.08	55.25
432.667	54.25
433.254	67.25
433.84	66.25
434.427	71.25
435.013	82.25
435.6	84.25
436.186	94.25
436.772	100.25
437.359	114.25
437.945	118.25
438.531	135.25
439.117	132.25
439.703	149.25
440.289	154.25
440.875	171.25
441.461	179.25
442.047	204.25
442.632	207.25
443.218	230.25
443.804	254.25
444.389	268.25
444.975	291.25
445.56	310.25
446.145	336.25
446.731	342.25
447.316	377.25
447.901	407.25
448.486	439.25
449.071	480.25
449.656	495.25
450.241	525.25
450.826	571.25
451.411	601.25
451.996	664.25
452.58	709.25
453.165	780.25
453.75	834.25
454.334	877.25
454.919	962.25
455.503	1018.25
456.087	1090.25
456.672	1177.25
457.256	1257.25
457.84	1362.25
458.424	1452.25
459.008	1583.25
459.592	1649.25
460.176	1781.25
460.76	1826.25
461.344	1965.25
461.927	2045.25
462.511	2072.25
463.095	2155.25
463.678	2190.25
464.262	2187.25
464.845	2236.25
465.429	2226.25
466.012	2188.25
466.595	2153.25
467.178	2095.25
467.762	2047.25
468.345	1995.25
468.928	1919.25
469.511	1804.25
470.094	1707.25
470.676	1580.25
471.259	1497.25
471.842	1401.25
472.425	1331.25
473.007	1204.25
473.59	1152.25
474.172	1048.25
474.755	983.25
475.337	931.25
475.919	873.25
476.502	825.25
477.084	789.25
477.666	746.25
478.248	693.25
478.83	669.25
479.412	625.25
479.994	588.25
480.576	574.25
481.157	544.25
481.739	504.25
482.321	495.25
482.902	456.25
483.484	446.25
484.065	404.25
484.647	381.25
485.228	358.25
485.809	346.25
486.391	331.25
486.972	308.25
487.553	285.25
488.134	258.25
488.715	251.25
489.296	229.25
489.877	224.25
490.458	194.25
491.038	180.25
491.619	179.25
492.2	167.25
492.78	158.25
493.361	158.25
493.941	146.25
494.522	142.25
495.102	133.25
495.682	137.25
496.262	124.25
496.843	118.25
497.423	122.25
498.003	116.25
498.583	107.25
499.163	111.25
499.742	108.25
500.322	98.25
500.902	89.25
501.482	96.25
502.061	92.25
502.641	92.25
503.22	91.25
503.8	87.25
504.379	93.25
504.958	82.25
505.538	91.25
506.117	78.25
506.696	78.25
507.275	88.25
507.854	80.25
508.433	81.25
509.012	87.25
509.591	78.25
510.169	94.25
510.748	83.25
511.327	87.25
511.905	93.25
512.484	102.25
513.062	96.25
513.641	104.25
514.219	107.25
514.797	108.25
515.375	119.25
515.954	126.25
516.532	132.25
517.11	141.25
517.688	149.25
518.266	157.25
518.843	156.25
519.421	172.25
519.999	174.25
520.577	183.25
521.154	196.25
521.732	211.25
522.309	220.25
522.887	227.25
523.464	229.25
524.041	246.25
524.619	257.25
525.196	256.25
525.773	268.25
526.35	273.25
526.927	277.25
527.504	289.25
528.081	287.25
528.658	293.25
529.235	301.25
529.811	299.25
530.388	298.25
530.964	309.25
531.541	319.25
532.117	300.25
532.694	328.25
533.27	325.25
533.846	314.25
534.423	305.25
534.999	310.25
535.575	320.25
536.151	303.25
536.727	307.25
537.303	311.25
537.879	304.25
538.455	309.25
539.03	296.25
539.606	298.25
540.182	292.25
540.757	314.25
541.333	288.25
541.908	290.25
542.483	301.25
543.059	273.25
543.634	284.25
544.209	284.25
544.784	278.25
545.359	285.25
545.934	291.25
546.509	265.25
547.084	272.25
547.659	266.25
548.234	255.25
548.808	270.25
549.383	269.25
549.958	259.25
550.532	255.25
551.107	265.25
551.681	261.25
552.255	255.25
552.83	253.25
553.404	258.25
553.978	263.25
554.552	247.25
555.126	262.25
555.7	249.25
556.274	249.25
556.848	250.25
557.422	261.25
557.995	254.25
558.569	258.25
559.143	260.25
559.716	267.25
560.29	271.25
560.863	272.25
561.437	271.25
562.01	271.25
562.583	286.25
563.156	276.25
563.729	295.25
564.302	292.25
564.875	297.25
565.448	286.25
566.021	300.25
566.594	307.25
567.167	307.25
567.74	319.25
568.312	316.25
568.885	323.25
569.457	315.25
570.03	323.25
570.602	327.25
571.174	320.25
571.747	328.25
572.319	322.25
572.891	327.25
573.463	325.25
574.035	325.25
574.607	332.25
575.179	326.25
575.751	325.25
576.323	318.25
576.894	327.25
577.466	330.25
578.038	321.25
578.609	322.25
579.181	331.25
579.752	312.25
580.323	314.25
580.895	323.25
581.466	329.25
582.037	327.25
582.608	333.25
583.179	340.25
583.75	326.25
584.321	328.25
584.892	339.25
585.463	332.25
586.033	339.25
586.604	335.25
587.175	332.25
587.745	333.25
588.316	354.25
588.886	342.25
589.457	341.25
590.027	335.25
590.597	336.25
591.167	333.25
591.737	321.25
592.308	341.25
592.878	342.25
593.447	342.25
594.017	316.25
594.587	322.25
595.157	332.25
595.727	318.25
596.296	329.25
596.866	320.25
597.435	315.25
598.005	310.25
598.574	327.25
599.143	324.25
599.713	304.25
600.282	316.25
600.851	307.25
601.42	297.25
601.989	299.25
602.558	302.25
603.127	308.25
603.696	298.25
604.265	299.25
604.833	306.25
605.402	306.25
605.971	309.25
606.539	291.25
607.108	291.25
607.676	293.25
608.244	309.25
608.813	302.25
609.381	303.25
609.949	294.25
610.517	288.25
611.085	280.25
611.653	290.25
612.221	297.25
612.789	278.25
613.357	295.25
613.924	287.25
614.492	302.25
615.06	274.25
615.627	283.25
616.195	298.25
616.762	295.25
617.329	292.25
617.897	294.25
618.464	276.25
619.031	277.25
619.598	283.25
620.165	280.25
620.732	272.25
621.299	278.25
621.866	273.25
622.433	285.25
623	280.25
623.566	276.25
624.133	267.25
624.7	264.25
625.266	260.25
625.832	261.25
626.399	268.25
626.965	275.25
627.531	264.25
628.098	268.25
628.664	269.25
629.23	264.25
629.796	268.25
630.362	269.25
630.928	259.25
631.493	259.25
632.059	261.25
632.625	252.25
633.19	257.25
633.756	261.25
634.322	256.25
634.887	244.25
635.452	251.25
636.018	239.25
636.583	245.25
637.148	248.25
637.713	244.25
638.278	245.25
638.843	231.25
639.408	239.25
639.973	229.25
640.538	233.25
641.103	233.25
641.667	230.25
642.232	226.25
642.797	221.25
643.361	224.25
643.926	221.25
644.49	217.25
645.054	212.25
645.619	217.25
646.183	213.25
646.747	213.25
647.311	208.25
647.875	210.25
648.439	211.25
649.003	199.25
649.567	193.25
650.131	207.25
650.694	202.25
651.258	191.25
651.822	196.25
652.385	181.25
652.949	195.25
653.512	190.25
654.075	191.25
654.639	188.25
655.202	185.25
655.765	182.25
656.328	179.25
656.891	179.25
657.454	163.25
658.017	170.25
658.58	181.25
659.143	177.25
659.705	177.25
660.268	174.25
660.83	179.25
661.393	172.25
661.955	164.25
662.518	166.25
663.08	164.25
663.643	165.25
664.205	152.25
664.767	158.25
665.329	164.25
665.891	157.25
666.453	162.25
667.015	153.25
667.577	149.25
668.139	154.25
668.7	148.25
669.262	143.25
669.824	147.25
670.385	144.25
670.947	148.25
671.508	135.25
672.069	137.25
672.631	132.25
673.192	139.25
673.753	140.25
674.314	137.25
674.875	133.25
675.436	135.25
675.997	132.25
676.558	131.25
677.119	127.25
677.679	122.25
678.24	130.25
678.801	126.25
679.361	131.25
679.922	121.25
680.482	136.25
681.042	125.25
681.603	134.25
682.163	128.25
682.723	129.25
683.283	128.25
683.843	114.25
684.403	117.25
684.963	121.25
685.523	122.25
686.083	116.25
686.642	113.25
687.202	118.25
687.762	110.25
688.321	109.25
688.881	110.25
689.44	107.25
690	104.25
690.559	109.25
691.118	104.25
691.677	101.25
692.236	103.25
692.795	97.25
693.354	92.25
693.913	93.25
694.472	95.25
695.031	102.25
695.59	95.25
696.148	97.25
696.707	91.25
697.265	88.25
697.824	93.25
698.382	87.25
698.941	91.25
699.499	85.25
700.057	80.25
700.615	85.25
701.173	79.25
701.731	76.25
702.289	79.25
702.847	83.25
703.405	80.25
703.963	78.25
704.521	76.25
705.078	76.25
705.636	80.25
706.194	82.25
706.751	75.25
707.308	66.25
707.866	70.25
708.423	64.25
708.98	67.25
709.537	70.25
710.095	67.25
710.652	67.25
711.209	69.25
711.765	68.25
712.322	67.25
712.879	60.25
713.436	60.25
713.992	56.25
714.549	66.25
715.106	63.25
715.662	65.25
716.218	56.25
716.775	55.25
717.331	57.25
717.887	54.25
718.443	60.25
719	55.25
719.556	53.25
720.112	47.25
720.667	52.25
721.223	52.25
721.779	54.25
722.335	52.25
722.89	53.25
723.446	50.25
724.002	46.25
724.557	51.25
725.112	45.25
725.668	49.25
726.223	51.25
726.778	47.25
727.333	46.25
727.888	47.25
728.443	48.25
728.998	45.25
729.553	43.25
730.108	44.25
730.663	40.25
731.218	41.25
731.772	40.25
732.327	43.25
732.881	39.25
733.436	39.25
733.99	41.25
734.545	36.25
735.099	38.25
735.653	38.25
736.207	33.25
736.761	36.25
737.315	35.25
737.869	35.25
738.423	37.25
738.977	36.25
739.531	37.25
740.084	42.25
740.638	34.25
741.192	39.25
741.745	32.25
742.299	35.25
742.852	35.25
743.405	31.25
743.959	28.25
744.512	34.25
745.065	35.25
745.618	36.25
746.171	33.25
746.724	29.25
747.277	28.25
747.83	29.25
748.382	24.25
748.935	25.25
749.488	30.25
750.04	21.25
750.593	29.25
751.145	32.25
751.698	33.25
752.25	28.25
752.802	26.25
753.354	29.25
753.906	25.25
754.458	25.25
755.01	29.25
755.562	27.25
756.114	27.25
756.666	24.25
757.218	20.25
757.769	22.25
758.321	20.25
758.873	21.25
759.424	18.25
759.975	19.25
760.527	22.25
761.078	21.25
761.629	23.25
762.181	20.25
762.732	25.25
763.283	17.25
763.834	20.25
764.385	19.25
764.935	19.25
765.486	22.25
766.037	21.25
766.588	18.25
767.138	15.25
767.689	22.25
768.239	20.25
768.79	18.25
769.34	17.25
769.89	19.25
770.44	20.25
770.991	17.25
771.541	15.25
772.091	19.25
772.641	16.25
773.191	16.25
773.74	21.25
774.29	18.25
774.84	17.25
775.39	16.25
775.939	14.25
776.489	15.25
777.038	16.25
777.588	15.25
778.137	18.25
778.686	14.25
779.235	19.25
779.784	16.25
780.334	18.25
780.883	9.25
781.431	13.25
781.98	13.25
782.529	8.25
783.078	20.25
783.627	17.25
784.175	14.25
784.724	10.25
785.272	22.25
785.821	14.25
786.369	14.25
786.917	13.25
787.466	15.25
788.014	16.25
788.562	12.25
789.11	12.25
789.658	13.25
790.206	12.25
790.754	10.25
791.302	12.25
791.849	14.25
792.397	14.25
792.945	17.25
793.492	10.25
794.04	12.25
794.587	14.25
795.134	14.25
795.682	13.25
796.229	12.25
796.776	7.25
797.323	7.25
797.87	15.25
798.417	6.25
798.964	10.25
799.511	14.25
800.058	9.25
800.604	10.25
801.151	13.25
801.698	9.25
802.244	11.25
802.791	9.25
803.337	9.25
803.883	11.25
804.43	9.25
804.976	5.25
805.522	13.25
806.068	9.25
806.614	4.25
807.16	7.25
807.706	11.25
808.252	12.25
808.797	9.25
809.343	5.25
809.889	5.25
810.434	10.25
810.98	6.25
811.525	7.25
812.071	7.25
812.616	8.25
813.161	8.25
813.706	8.25
814.252	11.25
814.797	6.25
815.342	7.25
815.886	5.25
816.431	7.25
816.976	6.25
817.521	8.25
818.066	5.25
818.61	10.25
819.155	8.25
819.699	4.25
820.244	3.25
820.788	8.25
821.332	6.25
821.876	5.25
822.421	4.25
822.965	3.25
823.509	4.25
824.053	5.25
824.597	3.25
825.14	9.25
825.684	7.25
826.228	5.25
826.771	6.25
827.315	5.25
827.859	8.25
828.402	2.25
828.945	5.25
829.489	8.25
830.032	6.25
830.575	7.25
831.118	7.25
831.661	5.25
832.204	5.25
832.747	1.25
833.29	3.25
833.833	7.25
834.376	4.25
834.918	5.25
835.461	2.25
836.004	5.25
836.546	1.25
837.088	7.25
837.631	3.25
838.173	4.25
838.715	6.25
839.257	4.25
839.8	2.25
840.342	7.25
840.884	7.25
841.425	10.25
841.967	6.25
842.509	8.25
843.051	3.25
843.592	4.25
844.134	3.25
844.676	4.25
845.217	5.25
845.758	5.25
846.3	6.25
846.841	5.25
847.382	5.25
847.923	4.25
848.464	3.25
849.005	5.25
849.546	6.25
850.087	3.25
850.628	5.25
851.169	7.25
851.709	2.25
852.25	0.25
852.791	0.25
853.331	3.25
853.871	5.25
854.412	2.25
854.952	7.25
855.492	6.25
856.033	6.25
856.573	1.25
857.113	5.25
857.653	3.25
858.193	4.25
858.732	4.25
859.272	2.25
859.812	2.25
860.352	4.25
860.891	3.25
861.431	6.25
861.97	3.25
862.509	0.25
863.049	4.25
863.588	2.25
864.127	3.25
864.666	3.25
865.205	8.25
865.744	2.25
866.283	6.25
866.822	3.25
867.361	0.25
867.9	2.25
868.438	5.25
868.977	4.25
869.516	2.25
870.054	5.25
870.593	1.25
871.131	4.25
871.669	1.25
872.207	4.25
872.746	3.25
873.284	4.25
873.822	1.25
874.36	6.25
874.898	3.25
875.435	-0.75
875.973	0.25
876.511	2.25
877.048	2.25
877.586	3.25
878.124	4.25
878.661	3.25
879.198	2.25
879.736	-0.75
880.273	2.25
880.81	3.25
881.347	0.25
881.884	3.25
882.421	0.25
882.958	6.25
883.495	0.25
884.032	3.25
884.569	-2.75
885.105	3.25
885.642	4.25
886.178	2.25
886.715	3.25
887.251	0.25
887.788	0.25
888.324	-0.75
888.86	4.25
889.396	2.25
889.932	1.25
890.468	1.25
891.004	0.25
891.54	1.25
892.076	8.25
892.612	1.25
893.147	2.25
893.683	8.25
894.219	2.25
894.754	4.25
895.29	-1.75
895.825	0.25
896.36	1.25
896.896	6.25
897.431	-0.75
897.966	2.25
898.501	-0.75
899.036	3.25
899.571	0.25
900.106	2.25
900.64	2.25
901.175	0.25
901.71	0.25
902.244	4.25
902.779	-0.75
903.313	2.25
903.848	4.25
904.382	5.25
904.916	2.25
905.45	3.25
905.985	3.25
906.519	-0.75
907.053	3.25
907.587	3.25
908.12	3.25
908.654	2.25
909.188	1.25
909.722	5.25
910.255	-0.75
910.789	4.25
911.322	4.25
911.856	4.25
912.389	1.25
912.922	3.25
913.456	4.25
913.989	3.25
914.522	0.25
915.055	4.25
915.588	2.25
916.121	3.25
916.653	1.25
917.186	4.25
917.719	2.25
918.252	-1.75
918.784	2.25
919.317	3.25
919.849	3.25
920.381	1.25
920.914	2.25
921.446	0.25
921.978	3.25
922.51	1.25
923.042	5.25
923.574	4.25
924.106	4.25
924.638	2.25
925.17	2.25
925.701	0.25
926.233	0.25
926.765	-2.75
927.296	4.25
927.828	1.25
928.359	1.25
928.89	3.25
929.422	4.25
929.953	1.25
930.484	4.25
931.015	-3.75
931.546	1.25
932.077	1.25
932.608	-0.75
933.138	2.25
933.669	-1.75
934.2	-2.75
934.73	-4.75
935.261	-0.75
