Data from LOOPyPMA-1_QEP046991__5__18-11-14-757.txt Node

Date: Sun May 11 18:11:14 CEST 2025
User: superuser
Spectrometer: QEP04699
Trigger mode: 4
Integration Time (sec): 1.000000E-1
Scans to average: 1
Electric dark correction enabled: true
Nonlinearity correction enabled: false
Boxcar width: 0
XAxis mode: Wavelengths
Number of Pixels in Spectrum: 1044
>>>>>Begin Spectral Data<<<<<
347.57	11
348.165	0
348.76	-2
349.355	-2
349.95	-1
350.545	1
351.14	1
351.735	-3
352.33	0
352.924	0
353.519	5
354.114	-6
354.708	-1
355.303	-3
355.897	0
356.491	-1
357.086	-4
357.68	-1
358.274	4
358.868	-3
359.462	2
360.056	2
360.65	2
361.244	0
361.838	-1
362.431	0
363.025	-2
363.619	2
364.212	1
364.806	1
365.399	0
365.993	3
366.586	1
367.179	-2
367.772	-3
368.366	-3
368.959	1
369.552	2
370.145	-1
370.738	3
371.331	-1
371.923	-1
372.516	1
373.109	0
373.701	2
374.294	2
374.887	-2
375.479	1
376.071	-3
376.664	6
377.256	-4
377.848	2
378.44	-4
379.033	3
379.625	2
380.217	1
380.808	-2
381.4	-4
381.992	4
382.584	-3
383.176	-2
383.767	2
384.359	2
384.95	-1
385.542	-2
386.133	-2
386.725	0
387.316	4
387.907	-1
388.498	4
389.089	-3
389.68	1
390.271	3
390.862	0
391.453	0
392.044	-3
392.635	1
393.225	1
393.816	2
394.407	2
394.997	3
395.588	4
396.178	0
396.768	2
397.359	0
397.949	0
398.539	4
399.129	0
399.719	2
400.309	3
400.899	3
401.489	2
402.079	0
402.668	2
403.258	-1
403.848	3
404.437	1
405.027	3
405.616	1
406.206	3
406.795	2
407.384	3
407.973	3
408.563	4
409.152	4
409.741	4
410.33	1
410.919	5
411.508	6
412.096	7
412.685	7
413.274	5
413.862	5
414.451	5
415.039	9
415.628	8
416.216	4
416.805	9
417.393	8
417.981	7
418.569	12
419.157	10
419.745	10
420.333	13
420.921	14
421.509	16
422.097	15
422.685	18
423.272	21
423.86	21
424.447	20
425.035	24
425.622	30
426.21	25
426.797	24
427.384	23
427.972	35
428.559	35
429.146	35
429.733	38
430.32	39
430.907	48
431.494	50
432.08	55
432.667	57
433.254	65
433.84	68
434.427	70
435.013	76
435.6	84
436.186	92
436.772	100
437.359	99
437.945	119
438.531	129
439.117	131
439.703	145
440.289	155
440.875	172
441.461	176
442.047	200
442.632	212
443.218	230
443.804	248
444.389	267
444.975	279
445.56	309
446.145	318
446.731	353
447.316	378
447.901	408
448.486	428
449.071	466
449.656	485
450.241	535
450.826	551
451.411	629
451.996	637
452.58	709
453.165	758
453.75	825
454.334	878
454.919	950
455.503	1031
456.087	1086
456.672	1179
457.256	1282
457.84	1370
458.424	1451
459.008	1563
459.592	1635
460.176	1755
460.76	1842
461.344	1900
461.927	2035
462.511	2059
463.095	2130
463.678	2190
464.262	2151
464.845	2205
465.429	2231
466.012	2189
466.595	2176
467.178	2130
467.762	2028
468.345	1957
468.928	1915
469.511	1776
470.094	1683
470.676	1585
471.259	1477
471.842	1408
472.425	1299
473.007	1222
473.59	1153
474.172	1073
474.755	991
475.337	922
475.919	881
476.502	818
477.084	783
477.666	747
478.248	678
478.83	645
479.412	631
479.994	585
480.576	560
481.157	538
481.739	522
482.321	485
482.902	450
483.484	431
484.065	409
484.647	382
485.228	367
485.809	327
486.391	327
486.972	305
487.553	278
488.134	269
488.715	248
489.296	231
489.877	221
490.458	206
491.038	188
491.619	183
492.2	172
492.78	160
493.361	151
493.941	147
494.522	140
495.102	126
495.682	124
496.262	120
496.843	118
497.423	118
498.003	107
498.583	112
499.163	106
499.742	104
500.322	98
500.902	88
501.482	89
502.061	92
502.641	92
503.22	89
503.8	89
504.379	90
504.958	83
505.538	82
506.117	78
506.696	79
507.275	76
507.854	82
508.433	76
509.012	77
509.591	76
510.169	81
510.748	85
511.327	82
511.905	83
512.484	95
513.062	104
513.641	95
514.219	112
514.797	97
515.375	125
515.954	113
516.532	131
517.11	132
517.688	151
518.266	147
518.843	152
519.421	174
519.999	196
520.577	188
521.154	196
521.732	204
522.309	218
522.887	223
523.464	229
524.041	246
524.619	245
525.196	261
525.773	266
526.35	277
526.927	275
527.504	289
528.081	303
528.658	299
529.235	294
529.811	303
530.388	301
530.964	311
531.541	310
532.117	308
532.694	313
533.27	312
533.846	314
534.423	311
534.999	317
535.575	318
536.151	303
536.727	298
537.303	310
537.879	299
538.455	299
539.03	307
539.606	299
540.182	286
540.757	296
541.333	295
541.908	283
542.483	296
543.059	284
543.634	288
544.209	287
544.784	265
545.359	280
545.934	278
546.509	271
547.084	266
547.659	264
548.234	273
548.808	264
549.383	254
549.958	252
550.532	259
551.107	255
551.681	270
552.255	260
552.83	250
553.404	247
553.978	254
554.552	245
555.126	251
555.7	257
556.274	253
556.848	251
557.422	252
557.995	239
558.569	255
559.143	254
559.716	263
560.29	279
560.863	262
561.437	278
562.01	287
562.583	284
563.156	279
563.729	275
564.302	289
564.875	287
565.448	295
566.021	295
566.594	297
567.167	301
567.74	317
568.312	316
568.885	317
569.457	330
570.03	315
570.602	320
571.174	329
571.747	331
572.319	327
572.891	326
573.463	322
574.035	317
574.607	324
575.179	322
575.751	324
576.323	332
576.894	322
577.466	320
578.038	322
578.609	327
579.181	319
579.752	316
580.323	328
580.895	329
581.466	316
582.037	313
582.608	329
583.179	325
583.75	328
584.321	334
584.892	333
585.463	330
586.033	334
586.604	345
587.175	342
587.745	337
588.316	341
588.886	342
589.457	343
590.027	331
590.597	332
591.167	335
591.737	337
592.308	325
592.878	344
593.447	336
594.017	331
594.587	325
595.157	315
595.727	320
596.296	319
596.866	323
597.435	317
598.005	318
598.574	308
599.143	305
599.713	296
600.282	314
600.851	305
601.42	300
601.989	310
602.558	306
603.127	288
603.696	294
604.265	291
604.833	296
605.402	307
605.971	299
606.539	295
607.108	300
607.676	294
608.244	305
608.813	288
609.381	281
609.949	286
610.517	298
611.085	290
611.653	299
612.221	287
612.789	280
613.357	291
613.924	274
614.492	282
615.06	288
615.627	283
616.195	278
616.762	278
617.329	283
617.897	279
618.464	280
619.031	271
619.598	285
620.165	262
620.732	264
621.299	274
621.866	272
622.433	273
623	272
623.566	278
624.133	271
624.7	275
625.266	267
625.832	262
626.399	262
626.965	270
627.531	272
628.098	256
628.664	268
629.23	254
629.796	251
630.362	266
630.928	250
631.493	264
632.059	252
632.625	247
633.19	257
633.756	247
634.322	252
634.887	239
635.452	245
636.018	233
636.583	246
637.148	232
637.713	233
638.278	227
638.843	240
639.408	228
639.973	233
640.538	217
641.103	224
641.667	225
642.232	224
642.797	212
643.361	212
643.926	225
644.49	219
645.054	211
645.619	210
646.183	210
646.747	205
647.311	203
647.875	215
648.439	195
649.003	204
649.567	195
650.131	194
650.694	200
651.258	196
651.822	196
652.385	187
652.949	183
653.512	188
654.075	188
654.639	179
655.202	179
655.765	181
656.328	172
656.891	181
657.454	170
658.017	160
658.58	160
659.143	176
659.705	171
660.268	162
660.83	165
661.393	158
661.955	168
662.518	163
663.08	164
663.643	165
664.205	158
664.767	155
665.329	159
665.891	149
666.453	159
667.015	143
667.577	152
668.139	141
668.7	139
669.262	146
669.824	144
670.385	141
670.947	148
671.508	136
672.069	141
672.631	136
673.192	132
673.753	143
674.314	126
674.875	133
675.436	118
675.997	137
676.558	124
677.119	132
677.679	134
678.24	131
678.801	127
679.361	124
679.922	117
680.482	126
681.042	119
681.603	125
682.163	128
682.723	119
683.283	116
683.843	123
684.403	120
684.963	116
685.523	113
686.083	111
686.642	114
687.202	112
687.762	109
688.321	105
688.881	110
689.44	104
690	98
690.559	106
691.118	105
691.677	105
692.236	103
692.795	104
693.354	92
693.913	102
694.472	97
695.031	89
695.59	92
696.148	97
696.707	96
697.265	94
697.824	85
698.382	85
698.941	80
699.499	87
700.057	76
700.615	78
701.173	88
701.731	78
702.289	78
702.847	85
703.405	78
703.963	75
704.521	73
705.078	67
705.636	74
706.194	69
706.751	73
707.308	68
707.866	71
708.423	75
708.98	73
709.537	68
710.095	64
710.652	70
711.209	65
711.765	66
712.322	61
712.879	62
713.436	60
713.992	57
714.549	61
715.106	61
715.662	64
716.218	59
716.775	57
717.331	49
717.887	59
718.443	50
719	48
719.556	51
720.112	59
720.667	47
721.223	52
721.779	51
722.335	54
722.89	52
723.446	47
724.002	40
724.557	48
725.112	41
725.668	43
726.223	45
726.778	49
727.333	43
727.888	45
728.443	37
728.998	47
729.553	42
730.108	41
730.663	43
731.218	41
731.772	39
732.327	44
732.881	37
733.436	44
733.99	39
734.545	40
735.099	40
735.653	40
736.207	39
736.761	39
737.315	38
737.869	33
738.423	31
738.977	33
739.531	33
740.084	36
740.638	31
741.192	26
741.745	35
742.299	32
742.852	33
743.405	28
743.959	31
744.512	32
745.065	27
745.618	32
746.171	28
746.724	29
747.277	24
747.83	25
748.382	27
748.935	28
749.488	27
750.04	28
750.593	28
751.145	25
751.698	22
752.25	27
752.802	25
753.354	24
753.906	24
754.458	24
755.01	21
755.562	24
756.114	22
756.666	22
757.218	16
757.769	20
758.321	22
758.873	18
759.424	19
759.975	20
760.527	25
761.078	26
761.629	19
762.181	21
762.732	16
763.283	17
763.834	17
764.385	19
764.935	14
765.486	13
766.037	15
766.588	18
767.138	14
767.689	15
768.239	15
768.79	19
769.34	16
769.89	20
770.44	20
770.991	19
771.541	14
772.091	18
772.641	13
773.191	16
773.74	12
774.29	14
774.84	18
775.39	12
775.939	16
776.489	15
777.038	14
777.588	17
778.137	16
778.686	14
779.235	14
779.784	13
780.334	16
780.883	16
781.431	13
781.98	16
782.529	17
783.078	11
783.627	14
784.175	8
784.724	9
785.272	8
785.821	12
786.369	10
786.917	8
787.466	13
788.014	13
788.562	14
789.11	11
789.658	10
790.206	8
790.754	8
791.302	5
791.849	8
792.397	13
792.945	11
793.492	13
794.04	10
794.587	10
795.134	11
795.682	8
796.229	10
796.776	9
797.323	11
797.87	11
798.417	10
798.964	11
799.511	9
800.058	13
800.604	7
801.151	7
801.698	8
802.244	6
802.791	8
803.337	9
803.883	8
804.43	9
804.976	5
805.522	8
806.068	11
806.614	5
807.16	6
807.706	5
808.252	5
808.797	7
809.343	5
809.889	3
810.434	4
810.98	4
811.525	9
812.071	4
812.616	5
813.161	6
813.706	4
814.252	5
814.797	8
815.342	6
815.886	7
816.431	4
816.976	6
817.521	4
818.066	5
818.61	5
819.155	2
819.699	1
820.244	3
820.788	7
821.332	6
821.876	0
822.421	5
822.965	5
823.509	3
824.053	9
824.597	4
825.14	3
825.684	3
826.228	3
826.771	4
827.315	4
827.859	2
828.402	5
828.945	6
829.489	2
830.032	1
830.575	2
831.118	4
831.661	1
832.204	6
832.747	2
833.29	1
833.833	5
834.376	6
834.918	0
835.461	5
836.004	5
836.546	-1
837.088	5
837.631	3
838.173	3
838.715	5
839.257	7
839.8	1
840.342	-4
840.884	1
841.425	3
841.967	-2
842.509	1
843.051	3
843.592	2
844.134	4
844.676	-2
845.217	2
845.758	-1
846.3	3
846.841	2
847.382	4
847.923	4
848.464	1
849.005	2
849.546	-1
850.087	0
850.628	4
851.169	0
851.709	0
852.25	3
852.791	2
853.331	1
853.871	3
854.412	-1
854.952	2
855.492	1
856.033	4
856.573	2
857.113	-1
857.653	3
858.193	3
858.732	0
859.272	1
859.812	3
860.352	2
860.891	2
861.431	3
861.97	0
862.509	-2
863.049	-5
863.588	3
864.127	0
864.666	-1
865.205	1
865.744	-1
866.283	-1
866.822	-1
867.361	3
867.9	1
868.438	0
868.977	-1
869.516	-3
870.054	5
870.593	0
871.131	-1
871.669	3
872.207	-1
872.746	-2
873.284	1
873.822	-1
874.36	2
874.898	-1
875.435	1
875.973	-1
876.511	3
877.048	-1
877.586	-1
878.124	-1
878.661	4
879.198	2
879.736	-1
880.273	-1
880.81	-4
881.347	3
881.884	2
882.421	1
882.958	-1
883.495	-3
884.032	3
884.569	0
885.105	-1
885.642	5
886.178	2
886.715	0
887.251	-3
887.788	1
888.324	-1
888.86	5
889.396	1
889.932	-2
890.468	3
891.004	1
891.54	-1
892.076	-1
892.612	-1
893.147	0
893.683	2
894.219	-1
894.754	-1
895.29	1
895.825	3
896.36	-1
896.896	-2
897.431	-1
897.966	0
898.501	-1
899.036	0
899.571	-2
900.106	1
900.64	2
901.175	-2
901.71	0
902.244	1
902.779	1
903.313	-1
903.848	3
904.382	5
904.916	2
905.45	1
905.985	-2
906.519	1
907.053	-2
907.587	2
908.12	-2
908.654	-1
909.188	4
909.722	-3
910.255	1
910.789	0
911.322	2
911.856	0
912.389	1
912.922	1
913.456	2
913.989	1
914.522	-1
915.055	-3
915.588	-2
916.121	-2
916.653	1
917.186	-2
917.719	-2
918.252	4
918.784	1
919.317	1
919.849	4
920.381	5
920.914	1
921.446	-2
921.978	0
922.51	-1
923.042	1
923.574	1
924.106	-1
924.638	2
925.17	1
925.701	1
926.233	-3
926.765	0
927.296	3
927.828	0
928.359	2
928.89	0
929.422	2
929.953	1
930.484	0
931.015	2
931.546	1
932.077	-1
932.608	1
933.138	-2
933.669	-3
934.2	2
934.73	-2
935.261	-4
