Data from LOOPyPMA-1_QEP046991__41__18-11-50-758.txt Node

Date: Sun May 11 18:11:50 CEST 2025
User: superuser
Spectrometer: QEP04699
Trigger mode: 4
Integration Time (sec): 1.000000E-1
Scans to average: 1
Electric dark correction enabled: true
Nonlinearity correction enabled: false
Boxcar width: 0
XAxis mode: Wavelengths
Number of Pixels in Spectrum: 1044
>>>>>Begin Spectral Data<<<<<
347.57	9.88
348.165	-1.12
348.76	-2.12
349.355	0.88
349.95	1.88
350.545	0.88
351.14	-2.12
351.735	2.88
352.33	0.88
352.924	4.88
353.519	3.88
354.114	1.88
354.708	-0.12
355.303	1.88
355.897	0.88
356.491	-1.12
357.086	1.88
357.68	1.88
358.274	-0.12
358.868	2.88
359.462	0.88
360.056	4.88
360.65	3.88
361.244	0.88
361.838	3.88
362.431	-1.12
363.025	-0.12
363.619	0.88
364.212	-0.12
364.806	4.88
365.399	1.88
365.993	4.88
366.586	1.88
367.179	0.88
367.772	0.88
368.366	1.88
368.959	-2.12
369.552	1.88
370.145	-0.12
370.738	-2.12
371.331	0.88
371.923	1.88
372.516	2.88
373.109	0.88
373.701	2.88
374.294	-0.12
374.887	3.88
375.479	0.88
376.071	3.88
376.664	1.88
377.256	1.88
377.848	0.88
378.44	0.88
379.033	-2.12
379.625	1.88
380.217	4.88
380.808	0.88
381.4	1.88
381.992	-1.12
382.584	2.88
383.176	-0.12
383.767	0.88
384.359	1.88
384.95	2.88
385.542	-1.12
386.133	2.88
386.725	1.88
387.316	0.88
387.907	1.88
388.498	0.88
389.089	3.88
389.68	-0.12
390.271	2.88
390.862	3.88
391.453	5.88
392.044	2.88
392.635	-0.12
393.225	4.88
393.816	1.88
394.407	1.88
394.997	5.88
395.588	1.88
396.178	2.88
396.768	6.88
397.359	2.88
397.949	2.88
398.539	-1.12
399.129	1.88
399.719	7.88
400.309	2.88
400.899	3.88
401.489	5.88
402.079	3.88
402.668	2.88
403.258	0.88
403.848	4.88
404.437	2.88
405.027	3.88
405.616	4.88
406.206	-0.12
406.795	2.88
407.384	2.88
407.973	3.88
408.563	2.88
409.152	3.88
409.741	3.88
410.33	5.88
410.919	2.88
411.508	7.88
412.096	6.88
412.685	8.88
413.274	7.88
413.862	5.88
414.451	7.88
415.039	12.88
415.628	7.88
416.216	13.88
416.805	9.88
417.393	10.88
417.981	9.88
418.569	13.88
419.157	17.88
419.745	16.88
420.333	11.88
420.921	13.88
421.509	15.88
422.097	17.88
422.685	16.88
423.272	20.88
423.86	18.88
424.447	18.88
425.035	20.88
425.622	25.88
426.21	27.88
426.797	29.88
427.384	33.88
427.972	36.88
428.559	38.88
429.146	37.88
429.733	41.88
430.32	44.88
430.907	45.88
431.494	53.88
432.08	55.88
432.667	60.88
433.254	62.88
433.84	68.88
434.427	69.88
435.013	84.88
435.6	87.88
436.186	93.88
436.772	93.88
437.359	107.88
437.945	120.88
438.531	124.88
439.117	136.88
439.703	145.88
440.289	158.88
440.875	178.88
441.461	194.88
442.047	199.88
442.632	218.88
443.218	233.88
443.804	254.88
444.389	279.88
444.975	283.88
445.56	309.88
446.145	350.88
446.731	368.88
447.316	385.88
447.901	400.88
448.486	438.88
449.071	471.88
449.656	526.88
450.241	534.88
450.826	588.88
451.411	630.88
451.996	660.88
452.58	719.88
453.165	791.88
453.75	853.88
454.334	891.88
454.919	978.88
455.503	1048.88
456.087	1126.88
456.672	1217.88
457.256	1299.88
457.84	1413.88
458.424	1484.88
459.008	1572.88
459.592	1710.88
460.176	1776.88
460.76	1894.88
461.344	1999.88
461.927	2069.88
462.511	2125.88
463.095	2191.88
463.678	2284.88
464.262	2258.88
464.845	2293.88
465.429	2296.88
466.012	2276.88
466.595	2254.88
467.178	2130.88
467.762	2113.88
468.345	2045.88
468.928	1978.88
469.511	1851.88
470.094	1767.88
470.676	1643.88
471.259	1546.88
471.842	1459.88
472.425	1361.88
473.007	1285.88
473.59	1175.88
474.172	1099.88
474.755	1029.88
475.337	964.88
475.919	920.88
476.502	854.88
477.084	787.88
477.666	742.88
478.248	739.88
478.83	704.88
479.412	649.88
479.994	630.88
480.576	577.88
481.157	577.88
481.739	537.88
482.321	520.88
482.902	484.88
483.484	467.88
484.065	434.88
484.647	402.88
485.228	390.88
485.809	372.88
486.391	336.88
486.972	321.88
487.553	285.88
488.134	279.88
488.715	260.88
489.296	234.88
489.877	224.88
490.458	219.88
491.038	191.88
491.619	187.88
492.2	174.88
492.78	174.88
493.361	159.88
493.941	156.88
494.522	137.88
495.102	137.88
495.682	130.88
496.262	120.88
496.843	118.88
497.423	128.88
498.003	118.88
498.583	114.88
499.163	112.88
499.742	108.88
500.322	97.88
500.902	105.88
501.482	101.88
502.061	100.88
502.641	90.88
503.22	88.88
503.8	86.88
504.379	94.88
504.958	93.88
505.538	79.88
506.117	81.88
506.696	86.88
507.275	76.88
507.854	83.88
508.433	77.88
509.012	76.88
509.591	71.88
510.169	84.88
510.748	79.88
511.327	87.88
511.905	85.88
512.484	91.88
513.062	96.88
513.641	89.88
514.219	102.88
514.797	107.88
515.375	110.88
515.954	117.88
516.532	131.88
517.11	124.88
517.688	139.88
518.266	145.88
518.843	144.88
519.421	163.88
519.999	168.88
520.577	184.88
521.154	186.88
521.732	194.88
522.309	207.88
522.887	202.88
523.464	218.88
524.041	220.88
524.619	243.88
525.196	242.88
525.773	242.88
526.35	252.88
526.927	267.88
527.504	263.88
528.081	281.88
528.658	275.88
529.235	273.88
529.811	279.88
530.388	275.88
530.964	287.88
531.541	295.88
532.117	292.88
532.694	298.88
533.27	291.88
533.846	286.88
534.423	295.88
534.999	296.88
535.575	293.88
536.151	289.88
536.727	291.88
537.303	281.88
537.879	282.88
538.455	286.88
539.03	280.88
539.606	276.88
540.182	265.88
540.757	271.88
541.333	263.88
541.908	261.88
542.483	263.88
543.059	257.88
543.634	273.88
544.209	264.88
544.784	268.88
545.359	253.88
545.934	255.88
546.509	256.88
547.084	246.88
547.659	240.88
548.234	247.88
548.808	232.88
549.383	250.88
549.958	244.88
550.532	229.88
551.107	240.88
551.681	231.88
552.255	234.88
552.83	236.88
553.404	230.88
553.978	225.88
554.552	231.88
555.126	225.88
555.7	234.88
556.274	231.88
556.848	235.88
557.422	236.88
557.995	225.88
558.569	236.88
559.143	232.88
559.716	239.88
560.29	247.88
560.863	241.88
561.437	251.88
562.01	247.88
562.583	259.88
563.156	254.88
563.729	264.88
564.302	266.88
564.875	271.88
565.448	273.88
566.021	274.88
566.594	280.88
567.167	275.88
567.74	278.88
568.312	289.88
568.885	289.88
569.457	294.88
570.03	302.88
570.602	289.88
571.174	302.88
571.747	284.88
572.319	285.88
572.891	285.88
573.463	288.88
574.035	296.88
574.607	305.88
575.179	302.88
575.751	291.88
576.323	304.88
576.894	280.88
577.466	299.88
578.038	286.88
578.609	276.88
579.181	288.88
579.752	284.88
580.323	305.88
580.895	293.88
581.466	292.88
582.037	282.88
582.608	296.88
583.179	306.88
583.75	293.88
584.321	307.88
584.892	313.88
585.463	307.88
586.033	303.88
586.604	303.88
587.175	296.88
587.745	309.88
588.316	314.88
588.886	297.88
589.457	298.88
590.027	304.88
590.597	308.88
591.167	310.88
591.737	301.88
592.308	304.88
592.878	298.88
593.447	297.88
594.017	296.88
594.587	289.88
595.157	292.88
595.727	298.88
596.296	297.88
596.866	284.88
597.435	284.88
598.005	276.88
598.574	276.88
599.143	281.88
599.713	264.88
600.282	275.88
600.851	284.88
601.42	272.88
601.989	266.88
602.558	281.88
603.127	265.88
603.696	278.88
604.265	271.88
604.833	268.88
605.402	267.88
605.971	271.88
606.539	265.88
607.108	277.88
607.676	258.88
608.244	261.88
608.813	257.88
609.381	255.88
609.949	269.88
610.517	272.88
611.085	268.88
611.653	253.88
612.221	256.88
612.789	251.88
613.357	263.88
613.924	257.88
614.492	254.88
615.06	255.88
615.627	253.88
616.195	253.88
616.762	255.88
617.329	244.88
617.897	250.88
618.464	243.88
619.031	241.88
619.598	257.88
620.165	247.88
620.732	243.88
621.299	255.88
621.866	248.88
622.433	237.88
623	253.88
623.566	250.88
624.133	245.88
624.7	234.88
625.266	246.88
625.832	236.88
626.399	234.88
626.965	240.88
627.531	235.88
628.098	232.88
628.664	237.88
629.23	237.88
629.796	243.88
630.362	242.88
630.928	228.88
631.493	234.88
632.059	233.88
632.625	222.88
633.19	223.88
633.756	230.88
634.322	237.88
634.887	219.88
635.452	218.88
636.018	215.88
636.583	216.88
637.148	216.88
637.713	213.88
638.278	202.88
638.843	205.88
639.408	219.88
639.973	210.88
640.538	203.88
641.103	217.88
641.667	200.88
642.232	200.88
642.797	198.88
643.361	199.88
643.926	197.88
644.49	193.88
645.054	200.88
645.619	201.88
646.183	186.88
646.747	180.88
647.311	188.88
647.875	188.88
648.439	190.88
649.003	187.88
649.567	179.88
650.131	179.88
650.694	181.88
651.258	178.88
651.822	171.88
652.385	173.88
652.949	168.88
653.512	171.88
654.075	159.88
654.639	162.88
655.202	164.88
655.765	162.88
656.328	159.88
656.891	155.88
657.454	160.88
658.017	154.88
658.58	161.88
659.143	162.88
659.705	157.88
660.268	144.88
660.83	154.88
661.393	142.88
661.955	146.88
662.518	161.88
663.08	156.88
663.643	144.88
664.205	150.88
664.767	144.88
665.329	143.88
665.891	136.88
666.453	140.88
667.015	130.88
667.577	139.88
668.139	133.88
668.7	135.88
669.262	124.88
669.824	134.88
670.385	131.88
670.947	126.88
671.508	126.88
672.069	120.88
672.631	120.88
673.192	121.88
673.753	127.88
674.314	118.88
674.875	113.88
675.436	118.88
675.997	116.88
676.558	121.88
677.119	120.88
677.679	121.88
678.24	110.88
678.801	121.88
679.361	118.88
679.922	113.88
680.482	110.88
681.042	122.88
681.603	122.88
682.163	111.88
682.723	113.88
683.283	109.88
683.843	113.88
684.403	111.88
684.963	107.88
685.523	105.88
686.083	103.88
686.642	104.88
687.202	107.88
687.762	101.88
688.321	96.88
688.881	103.88
689.44	99.88
690	88.88
690.559	93.88
691.118	90.88
691.677	85.88
692.236	94.88
692.795	83.88
693.354	89.88
693.913	93.88
694.472	86.88
695.031	78.88
695.59	92.88
696.148	80.88
696.707	86.88
697.265	81.88
697.824	79.88
698.382	74.88
698.941	86.88
699.499	79.88
700.057	78.88
700.615	74.88
701.173	71.88
701.731	68.88
702.289	79.88
702.847	65.88
703.405	77.88
703.963	67.88
704.521	69.88
705.078	70.88
705.636	66.88
706.194	63.88
706.751	63.88
707.308	64.88
707.866	60.88
708.423	60.88
708.98	62.88
709.537	66.88
710.095	54.88
710.652	64.88
711.209	60.88
711.765	53.88
712.322	64.88
712.879	58.88
713.436	59.88
713.992	52.88
714.549	57.88
715.106	56.88
715.662	57.88
716.218	51.88
716.775	53.88
717.331	50.88
717.887	52.88
718.443	49.88
719	51.88
719.556	42.88
720.112	44.88
720.667	50.88
721.223	50.88
721.779	48.88
722.335	49.88
722.89	39.88
723.446	48.88
724.002	44.88
724.557	41.88
725.112	34.88
725.668	43.88
726.223	39.88
726.778	43.88
727.333	40.88
727.888	40.88
728.443	40.88
728.998	33.88
729.553	39.88
730.108	36.88
730.663	42.88
731.218	38.88
731.772	36.88
732.327	36.88
732.881	39.88
733.436	29.88
733.99	31.88
734.545	36.88
735.099	34.88
735.653	32.88
736.207	34.88
736.761	39.88
737.315	24.88
737.869	34.88
738.423	33.88
738.977	32.88
739.531	38.88
740.084	32.88
740.638	31.88
741.192	31.88
741.745	32.88
742.299	28.88
742.852	27.88
743.405	34.88
743.959	33.88
744.512	33.88
745.065	25.88
745.618	29.88
746.171	28.88
746.724	26.88
747.277	29.88
747.83	26.88
748.382	25.88
748.935	23.88
749.488	24.88
750.04	26.88
750.593	23.88
751.145	21.88
751.698	26.88
752.25	24.88
752.802	26.88
753.354	23.88
753.906	22.88
754.458	20.88
755.01	16.88
755.562	21.88
756.114	19.88
756.666	18.88
757.218	16.88
757.769	23.88
758.321	19.88
758.873	21.88
759.424	21.88
759.975	21.88
760.527	17.88
761.078	18.88
761.629	20.88
762.181	25.88
762.732	21.88
763.283	14.88
763.834	17.88
764.385	19.88
764.935	15.88
765.486	18.88
766.037	15.88
766.588	13.88
767.138	15.88
767.689	16.88
768.239	17.88
768.79	13.88
769.34	16.88
769.89	19.88
770.44	17.88
770.991	18.88
771.541	16.88
772.091	13.88
772.641	15.88
773.191	16.88
773.74	13.88
774.29	14.88
774.84	17.88
775.39	13.88
775.939	12.88
776.489	17.88
777.038	18.88
777.588	14.88
778.137	15.88
778.686	12.88
779.235	13.88
779.784	16.88
780.334	13.88
780.883	9.88
781.431	12.88
781.98	13.88
782.529	10.88
783.078	14.88
783.627	11.88
784.175	16.88
784.724	13.88
785.272	12.88
785.821	13.88
786.369	12.88
786.917	12.88
787.466	9.88
788.014	7.88
788.562	13.88
789.11	9.88
789.658	7.88
790.206	11.88
790.754	12.88
791.302	8.88
791.849	10.88
792.397	12.88
792.945	13.88
793.492	9.88
794.04	9.88
794.587	10.88
795.134	10.88
795.682	9.88
796.229	8.88
796.776	8.88
797.323	8.88
797.87	12.88
798.417	9.88
798.964	9.88
799.511	8.88
800.058	8.88
800.604	7.88
801.151	9.88
801.698	9.88
802.244	8.88
802.791	5.88
803.337	5.88
803.883	8.88
804.43	9.88
804.976	3.88
805.522	6.88
806.068	4.88
806.614	4.88
807.16	9.88
807.706	7.88
808.252	5.88
808.797	9.88
809.343	7.88
809.889	7.88
810.434	5.88
810.98	5.88
811.525	7.88
812.071	10.88
812.616	4.88
813.161	8.88
813.706	11.88
814.252	3.88
814.797	8.88
815.342	4.88
815.886	6.88
816.431	4.88
816.976	9.88
817.521	7.88
818.066	4.88
818.61	1.88
819.155	3.88
819.699	7.88
820.244	10.88
820.788	2.88
821.332	7.88
821.876	4.88
822.421	5.88
822.965	6.88
823.509	5.88
824.053	1.88
824.597	2.88
825.14	0.88
825.684	8.88
826.228	3.88
826.771	6.88
827.315	6.88
827.859	4.88
828.402	3.88
828.945	3.88
829.489	3.88
830.032	4.88
830.575	3.88
831.118	5.88
831.661	0.88
832.204	0.88
832.747	6.88
833.29	4.88
833.833	4.88
834.376	4.88
834.918	2.88
835.461	5.88
836.004	2.88
836.546	3.88
837.088	2.88
837.631	3.88
838.173	1.88
838.715	0.88
839.257	6.88
839.8	2.88
840.342	4.88
840.884	3.88
841.425	3.88
841.967	0.88
842.509	6.88
843.051	5.88
843.592	3.88
844.134	1.88
844.676	-0.12
845.217	3.88
845.758	4.88
846.3	0.88
846.841	5.88
847.382	2.88
847.923	2.88
848.464	3.88
849.005	9.88
849.546	2.88
850.087	4.88
850.628	3.88
851.169	0.88
851.709	1.88
852.25	2.88
852.791	1.88
853.331	4.88
853.871	2.88
854.412	1.88
854.952	3.88
855.492	2.88
856.033	5.88
856.573	1.88
857.113	3.88
857.653	0.88
858.193	2.88
858.732	5.88
859.272	1.88
859.812	1.88
860.352	1.88
860.891	0.88
861.431	5.88
861.97	3.88
862.509	0.88
863.049	0.88
863.588	0.88
864.127	4.88
864.666	2.88
865.205	1.88
865.744	3.88
866.283	4.88
866.822	2.88
867.361	-0.12
867.9	-0.12
868.438	0.88
868.977	1.88
869.516	0.88
870.054	1.88
870.593	1.88
871.131	3.88
871.669	2.88
872.207	2.88
872.746	4.88
873.284	0.88
873.822	6.88
874.36	4.88
874.898	1.88
875.435	0.88
875.973	1.88
876.511	-0.12
877.048	5.88
877.586	1.88
878.124	-0.12
878.661	-2.12
879.198	2.88
879.736	0.88
880.273	1.88
880.81	4.88
881.347	3.88
881.884	0.88
882.421	1.88
882.958	4.88
883.495	-1.12
884.032	-0.12
884.569	3.88
885.105	1.88
885.642	0.88
886.178	3.88
886.715	0.88
887.251	2.88
887.788	2.88
888.324	0.88
888.86	1.88
889.396	-3.12
889.932	4.88
890.468	-0.12
891.004	6.88
891.54	5.88
892.076	1.88
892.612	5.88
893.147	1.88
893.683	-0.12
894.219	-0.12
894.754	-0.12
895.29	-0.12
895.825	2.88
896.36	4.88
896.896	3.88
897.431	-0.12
897.966	2.88
898.501	2.88
899.036	0.88
899.571	0.88
900.106	0.88
900.64	1.88
901.175	-0.12
901.71	-2.12
902.244	2.88
902.779	0.88
903.313	-1.12
903.848	0.88
904.382	2.88
904.916	-0.12
905.45	3.88
905.985	2.88
906.519	1.88
907.053	0.88
907.587	0.88
908.12	2.88
908.654	0.88
909.188	-1.12
909.722	-0.12
910.255	3.88
910.789	3.88
911.322	-1.12
911.856	3.88
912.389	0.88
912.922	1.88
913.456	0.88
913.989	1.88
914.522	-1.12
915.055	1.88
915.588	3.88
916.121	3.88
916.653	-1.12
917.186	-0.12
917.719	3.88
918.252	-3.12
918.784	-3.12
919.317	-0.12
919.849	-1.12
920.381	2.88
920.914	1.88
921.446	2.88
921.978	3.88
922.51	2.88
923.042	1.88
923.574	2.88
924.106	3.88
924.638	2.88
925.17	4.88
925.701	1.88
926.233	2.88
926.765	1.88
927.296	0.88
927.828	5.88
928.359	1.88
928.89	2.88
929.422	0.88
929.953	0.88
930.484	-0.12
931.015	-1.12
931.546	1.88
932.077	-0.12
932.608	0.88
933.138	1.88
933.669	-6.12
934.2	-3.12
934.73	-2.12
935.261	3.88
