Data from LOOPyPMA-1_QEP046991__25__18-11-34-758.txt Node

Date: Sun May 11 18:11:34 CEST 2025
User: superuser
Spectrometer: QEP04699
Trigger mode: 4
Integration Time (sec): 1.000000E-1
Scans to average: 1
Electric dark correction enabled: true
Nonlinearity correction enabled: false
Boxcar width: 0
XAxis mode: Wavelengths
Number of Pixels in Spectrum: 1044
>>>>>Begin Spectral Data<<<<<
347.57	7.75
348.165	1.75
348.76	-0.25
349.355	-3.25
349.95	-3.25
350.545	0.75
351.14	-0.25
351.735	-1.25
352.33	-1.25
352.924	0.75
353.519	3.75
354.114	3.75
354.708	1.75
355.303	-0.25
355.897	3.75
356.491	0.75
357.086	0.75
357.68	3.75
358.274	2.75
358.868	2.75
359.462	2.75
360.056	3.75
360.65	3.75
361.244	2.75
361.838	1.75
362.431	0.75
363.025	2.75
363.619	2.75
364.212	-0.25
364.806	-2.25
365.399	0.75
365.993	0.75
366.586	2.75
367.179	-4.25
367.772	-0.25
368.366	-1.25
368.959	-4.25
369.552	0.75
370.145	-1.25
370.738	0.75
371.331	0.75
371.923	-0.25
372.516	1.75
373.109	0.75
373.701	-0.25
374.294	-2.25
374.887	-3.25
375.479	1.75
376.071	1.75
376.664	2.75
377.256	-0.25
377.848	1.75
378.44	2.75
379.033	-0.25
379.625	2.75
380.217	-5.25
380.808	0.75
381.4	4.75
381.992	2.75
382.584	3.75
383.176	-1.25
383.767	1.75
384.359	0.75
384.95	-1.25
385.542	1.75
386.133	0.75
386.725	-0.25
387.316	0.75
387.907	0.75
388.498	3.75
389.089	-0.25
389.68	2.75
390.271	-3.25
390.862	3.75
391.453	1.75
392.044	2.75
392.635	6.75
393.225	1.75
393.816	4.75
394.407	2.75
394.997	1.75
395.588	3.75
396.178	2.75
396.768	0.75
397.359	-1.25
397.949	-1.25
398.539	2.75
399.129	3.75
399.719	1.75
400.309	-1.25
400.899	2.75
401.489	-0.25
402.079	3.75
402.668	-1.25
403.258	3.75
403.848	6.75
404.437	2.75
405.027	3.75
405.616	3.75
406.206	6.75
406.795	5.75
407.384	2.75
407.973	4.75
408.563	6.75
409.152	5.75
409.741	3.75
410.33	4.75
410.919	6.75
411.508	5.75
412.096	8.75
412.685	7.75
413.274	7.75
413.862	5.75
414.451	6.75
415.039	9.75
415.628	9.75
416.216	7.75
416.805	4.75
417.393	13.75
417.981	6.75
418.569	6.75
419.157	9.75
419.745	10.75
420.333	11.75
420.921	16.75
421.509	13.75
422.097	17.75
422.685	15.75
423.272	19.75
423.86	21.75
424.447	21.75
425.035	25.75
425.622	19.75
426.21	33.75
426.797	27.75
427.384	30.75
427.972	32.75
428.559	35.75
429.146	32.75
429.733	47.75
430.32	41.75
430.907	39.75
431.494	49.75
432.08	46.75
432.667	50.75
433.254	54.75
433.84	67.75
434.427	73.75
435.013	81.75
435.6	89.75
436.186	92.75
436.772	99.75
437.359	106.75
437.945	113.75
438.531	125.75
439.117	129.75
439.703	145.75
440.289	164.75
440.875	159.75
441.461	176.75
442.047	202.75
442.632	227.75
443.218	230.75
443.804	257.75
444.389	264.75
444.975	289.75
445.56	306.75
446.145	329.75
446.731	341.75
447.316	379.75
447.901	405.75
448.486	425.75
449.071	458.75
449.656	497.75
450.241	542.75
450.826	563.75
451.411	601.75
451.996	647.75
452.58	705.75
453.165	741.75
453.75	820.75
454.334	876.75
454.919	940.75
455.503	1017.75
456.087	1122.75
456.672	1186.75
457.256	1269.75
457.84	1381.75
458.424	1447.75
459.008	1547.75
459.592	1655.75
460.176	1746.75
460.76	1826.75
461.344	1906.75
461.927	2012.75
462.511	2073.75
463.095	2141.75
463.678	2188.75
464.262	2228.75
464.845	2249.75
465.429	2225.75
466.012	2203.75
466.595	2159.75
467.178	2117.75
467.762	2034.75
468.345	1983.75
468.928	1919.75
469.511	1767.75
470.094	1708.75
470.676	1603.75
471.259	1515.75
471.842	1395.75
472.425	1279.75
473.007	1237.75
473.59	1146.75
474.172	1048.75
474.755	982.75
475.337	934.75
475.919	866.75
476.502	819.75
477.084	777.75
477.666	739.75
478.248	702.75
478.83	667.75
479.412	635.75
479.994	585.75
480.576	559.75
481.157	544.75
481.739	507.75
482.321	498.75
482.902	473.75
483.484	428.75
484.065	403.75
484.647	372.75
485.228	352.75
485.809	352.75
486.391	322.75
486.972	303.75
487.553	278.75
488.134	274.75
488.715	247.75
489.296	231.75
489.877	213.75
490.458	193.75
491.038	200.75
491.619	178.75
492.2	179.75
492.78	158.75
493.361	154.75
493.941	155.75
494.522	140.75
495.102	127.75
495.682	130.75
496.262	128.75
496.843	123.75
497.423	114.75
498.003	115.75
498.583	110.75
499.163	109.75
499.742	105.75
500.322	104.75
500.902	99.75
501.482	95.75
502.061	97.75
502.641	95.75
503.22	93.75
503.8	82.75
504.379	88.75
504.958	85.75
505.538	77.75
506.117	79.75
506.696	76.75
507.275	82.75
507.854	75.75
508.433	81.75
509.012	81.75
509.591	78.75
510.169	78.75
510.748	87.75
511.327	87.75
511.905	87.75
512.484	97.75
513.062	96.75
513.641	91.75
514.219	106.75
514.797	95.75
515.375	111.75
515.954	113.75
516.532	124.75
517.11	141.75
517.688	140.75
518.266	149.75
518.843	153.75
519.421	166.75
519.999	168.75
520.577	180.75
521.154	197.75
521.732	202.75
522.309	217.75
522.887	228.75
523.464	226.75
524.041	235.75
524.619	250.75
525.196	266.75
525.773	252.75
526.35	263.75
526.927	267.75
527.504	271.75
528.081	271.75
528.658	288.75
529.235	294.75
529.811	304.75
530.388	307.75
530.964	310.75
531.541	310.75
532.117	328.75
532.694	301.75
533.27	314.75
533.846	300.75
534.423	313.75
534.999	314.75
535.575	315.75
536.151	305.75
536.727	296.75
537.303	298.75
537.879	296.75
538.455	294.75
539.03	298.75
539.606	293.75
540.182	296.75
540.757	295.75
541.333	283.75
541.908	281.75
542.483	268.75
543.059	286.75
543.634	288.75
544.209	269.75
544.784	269.75
545.359	264.75
545.934	268.75
546.509	269.75
547.084	260.75
547.659	267.75
548.234	258.75
548.808	246.75
549.383	247.75
549.958	258.75
550.532	260.75
551.107	251.75
551.681	246.75
552.255	244.75
552.83	253.75
553.404	251.75
553.978	244.75
554.552	253.75
555.126	243.75
555.7	243.75
556.274	247.75
556.848	245.75
557.422	253.75
557.995	247.75
558.569	246.75
559.143	252.75
559.716	250.75
560.29	264.75
560.863	264.75
561.437	271.75
562.01	267.75
562.583	289.75
563.156	270.75
563.729	282.75
564.302	286.75
564.875	282.75
565.448	282.75
566.021	304.75
566.594	296.75
567.167	290.75
567.74	303.75
568.312	302.75
568.885	314.75
569.457	304.75
570.03	298.75
570.602	291.75
571.174	306.75
571.747	325.75
572.319	310.75
572.891	321.75
573.463	320.75
574.035	329.75
574.607	323.75
575.179	307.75
575.751	317.75
576.323	316.75
576.894	309.75
577.466	304.75
578.038	334.75
578.609	313.75
579.181	311.75
579.752	325.75
580.323	307.75
580.895	314.75
581.466	307.75
582.037	309.75
582.608	320.75
583.179	317.75
583.75	312.75
584.321	314.75
584.892	322.75
585.463	324.75
586.033	322.75
586.604	333.75
587.175	336.75
587.745	329.75
588.316	322.75
588.886	332.75
589.457	337.75
590.027	335.75
590.597	329.75
591.167	341.75
591.737	320.75
592.308	333.75
592.878	327.75
593.447	321.75
594.017	325.75
594.587	321.75
595.157	318.75
595.727	311.75
596.296	319.75
596.866	322.75
597.435	308.75
598.005	313.75
598.574	313.75
599.143	304.75
599.713	295.75
600.282	305.75
600.851	300.75
601.42	300.75
601.989	305.75
602.558	286.75
603.127	279.75
603.696	290.75
604.265	294.75
604.833	293.75
605.402	293.75
605.971	294.75
606.539	278.75
607.108	290.75
607.676	289.75
608.244	282.75
608.813	285.75
609.381	280.75
609.949	286.75
610.517	287.75
611.085	286.75
611.653	288.75
612.221	281.75
612.789	278.75
613.357	268.75
613.924	280.75
614.492	277.75
615.06	280.75
615.627	270.75
616.195	277.75
616.762	281.75
617.329	275.75
617.897	267.75
618.464	287.75
619.031	274.75
619.598	279.75
620.165	271.75
620.732	273.75
621.299	277.75
621.866	265.75
622.433	266.75
623	264.75
623.566	257.75
624.133	272.75
624.7	267.75
625.266	260.75
625.832	265.75
626.399	256.75
626.965	253.75
627.531	265.75
628.098	273.75
628.664	261.75
629.23	254.75
629.796	246.75
630.362	246.75
630.928	247.75
631.493	249.75
632.059	247.75
632.625	240.75
633.19	238.75
633.756	245.75
634.322	248.75
634.887	236.75
635.452	242.75
636.018	239.75
636.583	230.75
637.148	238.75
637.713	231.75
638.278	226.75
638.843	233.75
639.408	217.75
639.973	234.75
640.538	220.75
641.103	223.75
641.667	223.75
642.232	217.75
642.797	209.75
643.361	204.75
643.926	210.75
644.49	206.75
645.054	205.75
645.619	211.75
646.183	199.75
646.747	200.75
647.311	211.75
647.875	197.75
648.439	187.75
649.003	185.75
649.567	198.75
650.131	198.75
650.694	204.75
651.258	189.75
651.822	187.75
652.385	188.75
652.949	186.75
653.512	177.75
654.075	177.75
654.639	175.75
655.202	169.75
655.765	170.75
656.328	181.75
656.891	176.75
657.454	164.75
658.017	168.75
658.58	160.75
659.143	170.75
659.705	158.75
660.268	167.75
660.83	159.75
661.393	160.75
661.955	160.75
662.518	157.75
663.08	152.75
663.643	160.75
664.205	161.75
664.767	158.75
665.329	141.75
665.891	145.75
666.453	148.75
667.015	158.75
667.577	149.75
668.139	145.75
668.7	140.75
669.262	141.75
669.824	151.75
670.385	151.75
670.947	129.75
671.508	141.75
672.069	131.75
672.631	129.75
673.192	129.75
673.753	125.75
674.314	125.75
674.875	126.75
675.436	124.75
675.997	132.75
676.558	132.75
677.119	128.75
677.679	122.75
678.24	133.75
678.801	124.75
679.361	134.75
679.922	125.75
680.482	121.75
681.042	125.75
681.603	121.75
682.163	118.75
682.723	119.75
683.283	119.75
683.843	115.75
684.403	118.75
684.963	115.75
685.523	109.75
686.083	111.75
686.642	109.75
687.202	112.75
687.762	114.75
688.321	104.75
688.881	109.75
689.44	98.75
690	104.75
690.559	99.75
691.118	96.75
691.677	95.75
692.236	96.75
692.795	93.75
693.354	95.75
693.913	89.75
694.472	85.75
695.031	86.75
695.59	85.75
696.148	84.75
696.707	93.75
697.265	88.75
697.824	89.75
698.382	81.75
698.941	79.75
699.499	81.75
700.057	82.75
700.615	85.75
701.173	83.75
701.731	78.75
702.289	82.75
702.847	74.75
703.405	79.75
703.963	77.75
704.521	70.75
705.078	70.75
705.636	72.75
706.194	70.75
706.751	70.75
707.308	73.75
707.866	72.75
708.423	69.75
708.98	64.75
709.537	66.75
710.095	67.75
710.652	62.75
711.209	64.75
711.765	66.75
712.322	56.75
712.879	60.75
713.436	60.75
713.992	59.75
714.549	62.75
715.106	62.75
715.662	54.75
716.218	52.75
716.775	52.75
717.331	61.75
717.887	50.75
718.443	51.75
719	48.75
719.556	48.75
720.112	49.75
720.667	51.75
721.223	48.75
721.779	49.75
722.335	48.75
722.89	47.75
723.446	51.75
724.002	48.75
724.557	44.75
725.112	38.75
725.668	46.75
726.223	40.75
726.778	43.75
727.333	42.75
727.888	43.75
728.443	46.75
728.998	37.75
729.553	43.75
730.108	41.75
730.663	37.75
731.218	36.75
731.772	39.75
732.327	40.75
732.881	40.75
733.436	38.75
733.99	34.75
734.545	36.75
735.099	35.75
735.653	37.75
736.207	32.75
736.761	36.75
737.315	32.75
737.869	34.75
738.423	29.75
738.977	34.75
739.531	31.75
740.084	37.75
740.638	30.75
741.192	31.75
741.745	36.75
742.299	36.75
742.852	25.75
743.405	31.75
743.959	28.75
744.512	29.75
745.065	33.75
745.618	26.75
746.171	25.75
746.724	31.75
747.277	28.75
747.83	24.75
748.382	27.75
748.935	23.75
749.488	26.75
750.04	24.75
750.593	22.75
751.145	23.75
751.698	26.75
752.25	24.75
752.802	24.75
753.354	22.75
753.906	22.75
754.458	20.75
755.01	21.75
755.562	24.75
756.114	21.75
756.666	16.75
757.218	21.75
757.769	23.75
758.321	19.75
758.873	20.75
759.424	17.75
759.975	23.75
760.527	26.75
761.078	17.75
761.629	18.75
762.181	18.75
762.732	12.75
763.283	21.75
763.834	18.75
764.385	18.75
764.935	13.75
765.486	20.75
766.037	13.75
766.588	19.75
767.138	18.75
767.689	11.75
768.239	16.75
768.79	15.75
769.34	20.75
769.89	16.75
770.44	17.75
770.991	11.75
771.541	17.75
772.091	18.75
772.641	17.75
773.191	16.75
773.74	17.75
774.29	14.75
774.84	15.75
775.39	11.75
775.939	15.75
776.489	17.75
777.038	15.75
777.588	15.75
778.137	17.75
778.686	16.75
779.235	13.75
779.784	11.75
780.334	14.75
780.883	12.75
781.431	17.75
781.98	13.75
782.529	12.75
783.078	14.75
783.627	18.75
784.175	15.75
784.724	12.75
785.272	8.75
785.821	11.75
786.369	14.75
786.917	16.75
787.466	10.75
788.014	14.75
788.562	10.75
789.11	12.75
789.658	9.75
790.206	12.75
790.754	15.75
791.302	13.75
791.849	11.75
792.397	11.75
792.945	7.75
793.492	11.75
794.04	7.75
794.587	11.75
795.134	7.75
795.682	8.75
796.229	6.75
796.776	11.75
797.323	9.75
797.87	8.75
798.417	12.75
798.964	11.75
799.511	8.75
800.058	8.75
800.604	7.75
801.151	4.75
801.698	7.75
802.244	7.75
802.791	4.75
803.337	7.75
803.883	8.75
804.43	10.75
804.976	7.75
805.522	9.75
806.068	9.75
806.614	3.75
807.16	6.75
807.706	4.75
808.252	6.75
808.797	10.75
809.343	6.75
809.889	5.75
810.434	3.75
810.98	6.75
811.525	6.75
812.071	9.75
812.616	6.75
813.161	8.75
813.706	1.75
814.252	7.75
814.797	0.75
815.342	6.75
815.886	3.75
816.431	1.75
816.976	6.75
817.521	6.75
818.066	6.75
818.61	5.75
819.155	5.75
819.699	3.75
820.244	1.75
820.788	1.75
821.332	6.75
821.876	2.75
822.421	5.75
822.965	2.75
823.509	7.75
824.053	2.75
824.597	2.75
825.14	2.75
825.684	4.75
826.228	2.75
826.771	3.75
827.315	2.75
827.859	10.75
828.402	0.75
828.945	2.75
829.489	4.75
830.032	3.75
830.575	2.75
831.118	5.75
831.661	6.75
832.204	5.75
832.747	1.75
833.29	2.75
833.833	3.75
834.376	6.75
834.918	3.75
835.461	3.75
836.004	0.75
836.546	-0.25
837.088	5.75
837.631	4.75
838.173	1.75
838.715	-0.25
839.257	4.75
839.8	3.75
840.342	4.75
840.884	3.75
841.425	2.75
841.967	3.75
842.509	0.75
843.051	-0.25
843.592	0.75
844.134	2.75
844.676	2.75
845.217	3.75
845.758	3.75
846.3	5.75
846.841	2.75
847.382	0.75
847.923	0.75
848.464	5.75
849.005	4.75
849.546	1.75
850.087	-1.25
850.628	0.75
851.169	5.75
851.709	4.75
852.25	0.75
852.791	5.75
853.331	2.75
853.871	4.75
854.412	3.75
854.952	6.75
855.492	2.75
856.033	2.75
856.573	2.75
857.113	1.75
857.653	2.75
858.193	4.75
858.732	2.75
859.272	3.75
859.812	4.75
860.352	4.75
860.891	1.75
861.431	4.75
861.97	-0.25
862.509	5.75
863.049	2.75
863.588	8.75
864.127	4.75
864.666	5.75
865.205	6.75
865.744	4.75
866.283	1.75
866.822	2.75
867.361	0.75
867.9	0.75
868.438	-0.25
868.977	-0.25
869.516	4.75
870.054	1.75
870.593	1.75
871.131	-1.25
871.669	-0.25
872.207	3.75
872.746	-0.25
873.284	0.75
873.822	1.75
874.36	0.75
874.898	2.75
875.435	-0.25
875.973	0.75
876.511	0.75
877.048	0.75
877.586	8.75
878.124	0.75
878.661	-1.25
879.198	-0.25
879.736	1.75
880.273	1.75
880.81	0.75
881.347	-0.25
881.884	-1.25
882.421	-1.25
882.958	1.75
883.495	-0.25
884.032	2.75
884.569	1.75
885.105	0.75
885.642	2.75
886.178	-2.25
886.715	-1.25
887.251	-0.25
887.788	-0.25
888.324	2.75
888.86	4.75
889.396	3.75
889.932	-1.25
890.468	2.75
891.004	1.75
891.54	1.75
892.076	4.75
892.612	1.75
893.147	0.75
893.683	-0.25
894.219	0.75
894.754	2.75
895.29	0.75
895.825	4.75
896.36	-2.25
896.896	-0.25
897.431	2.75
897.966	2.75
898.501	-0.25
899.036	-1.25
899.571	-2.25
900.106	-1.25
900.64	1.75
901.175	3.75
901.71	2.75
902.244	2.75
902.779	2.75
903.313	4.75
903.848	1.75
904.382	0.75
904.916	-0.25
905.45	-0.25
905.985	2.75
906.519	-1.25
907.053	3.75
907.587	0.75
908.12	3.75
908.654	-0.25
909.188	0.75
909.722	0.75
910.255	0.75
910.789	-1.25
911.322	-0.25
911.856	3.75
912.389	-0.25
912.922	-0.25
913.456	6.75
913.989	-2.25
914.522	-6.25
915.055	5.75
915.588	4.75
916.121	1.75
916.653	3.75
917.186	0.75
917.719	-2.25
918.252	2.75
918.784	1.75
919.317	1.75
919.849	-0.25
920.381	-1.25
920.914	0.75
921.446	-0.25
921.978	1.75
922.51	0.75
923.042	2.75
923.574	2.75
924.106	-1.25
924.638	0.75
925.17	1.75
925.701	1.75
926.233	0.75
926.765	-0.25
927.296	0.75
927.828	-4.25
928.359	-0.25
928.89	0.75
929.422	1.75
929.953	4.75
930.484	-0.25
931.015	-1.25
931.546	-1.25
932.077	-0.25
932.608	-0.25
933.138	-1.25
933.669	-2.25
934.2	-1.25
934.73	0.75
935.261	-3.25
