Data from LOOPyPMA-1_QEP046991__13__18-11-22-757.txt Node

Date: Sun May 11 18:11:22 CEST 2025
User: superuser
Spectrometer: QEP04699
Trigger mode: 4
Integration Time (sec): 1.000000E-1
Scans to average: 1
Electric dark correction enabled: true
Nonlinearity correction enabled: false
Boxcar width: 0
XAxis mode: Wavelengths
Number of Pixels in Spectrum: 1044
>>>>>Begin Spectral Data<<<<<
347.57	10.88
348.165	0.88
348.76	1.88
349.355	-2.12
349.95	1.88
350.545	1.88
351.14	-4.12
351.735	1.88
352.33	4.88
352.924	-2.12
353.519	1.88
354.114	5.88
354.708	-0.12
355.303	-1.12
355.897	-1.12
356.491	2.88
357.086	-1.12
357.68	0.88
358.274	3.88
358.868	-1.12
359.462	3.88
360.056	-2.12
360.65	4.88
361.244	1.88
361.838	0.88
362.431	3.88
363.025	2.88
363.619	-0.12
364.212	2.88
364.806	-1.12
365.399	-0.12
365.993	-3.12
366.586	0.88
367.179	-2.12
367.772	3.88
368.366	0.88
368.959	1.88
369.552	3.88
370.145	0.88
370.738	1.88
371.331	3.88
371.923	-2.12
372.516	3.88
373.109	-0.12
373.701	-0.12
374.294	2.88
374.887	1.88
375.479	-0.12
376.071	6.88
376.664	-0.12
377.256	2.88
377.848	1.88
378.44	6.88
379.033	1.88
379.625	4.88
380.217	4.88
380.808	4.88
381.4	2.88
381.992	1.88
382.584	0.88
383.176	4.88
383.767	1.88
384.359	2.88
384.95	3.88
385.542	1.88
386.133	-1.12
386.725	3.88
387.316	2.88
387.907	-2.12
388.498	2.88
389.089	4.88
389.68	2.88
390.271	0.88
390.862	-0.12
391.453	-1.12
392.044	6.88
392.635	1.88
393.225	0.88
393.816	5.88
394.407	-0.12
394.997	2.88
395.588	2.88
396.178	5.88
396.768	1.88
397.359	2.88
397.949	4.88
398.539	4.88
399.129	0.88
399.719	3.88
400.309	2.88
400.899	1.88
401.489	4.88
402.079	1.88
402.668	1.88
403.258	5.88
403.848	6.88
404.437	5.88
405.027	3.88
405.616	4.88
406.206	3.88
406.795	-1.12
407.384	5.88
407.973	5.88
408.563	8.88
409.152	2.88
409.741	11.88
410.33	7.88
410.919	3.88
411.508	3.88
412.096	7.88
412.685	3.88
413.274	8.88
413.862	9.88
414.451	6.88
415.039	7.88
415.628	7.88
416.216	8.88
416.805	6.88
417.393	11.88
417.981	11.88
418.569	8.88
419.157	8.88
419.745	12.88
420.333	15.88
420.921	14.88
421.509	10.88
422.097	17.88
422.685	20.88
423.272	19.88
423.86	15.88
424.447	19.88
425.035	19.88
425.622	26.88
426.21	29.88
426.797	28.88
427.384	30.88
427.972	31.88
428.559	38.88
429.146	41.88
429.733	43.88
430.32	44.88
430.907	47.88
431.494	46.88
432.08	61.88
432.667	59.88
433.254	65.88
433.84	67.88
434.427	68.88
435.013	82.88
435.6	88.88
436.186	90.88
436.772	101.88
437.359	106.88
437.945	113.88
438.531	126.88
439.117	135.88
439.703	147.88
440.289	166.88
440.875	171.88
441.461	183.88
442.047	199.88
442.632	213.88
443.218	236.88
443.804	251.88
444.389	271.88
444.975	294.88
445.56	303.88
446.145	329.88
446.731	357.88
447.316	376.88
447.901	405.88
448.486	433.88
449.071	458.88
449.656	509.88
450.241	532.88
450.826	562.88
451.411	621.88
451.996	670.88
452.58	725.88
453.165	755.88
453.75	824.88
454.334	862.88
454.919	950.88
455.503	1026.88
456.087	1108.88
456.672	1160.88
457.256	1266.88
457.84	1385.88
458.424	1444.88
459.008	1554.88
459.592	1617.88
460.176	1761.88
460.76	1833.88
461.344	1911.88
461.927	2035.88
462.511	2089.88
463.095	2149.88
463.678	2202.88
464.262	2213.88
464.845	2225.88
465.429	2214.88
466.012	2207.88
466.595	2162.88
467.178	2138.88
467.762	2046.88
468.345	1978.88
468.928	1858.88
469.511	1808.88
470.094	1677.88
470.676	1624.88
471.259	1505.88
471.842	1405.88
472.425	1301.88
473.007	1214.88
473.59	1128.88
474.172	1053.88
474.755	1011.88
475.337	929.88
475.919	869.88
476.502	807.88
477.084	798.88
477.666	743.88
478.248	685.88
478.83	660.88
479.412	613.88
479.994	589.88
480.576	569.88
481.157	530.88
481.739	520.88
482.321	492.88
482.902	457.88
483.484	445.88
484.065	401.88
484.647	378.88
485.228	366.88
485.809	334.88
486.391	315.88
486.972	303.88
487.553	290.88
488.134	261.88
488.715	245.88
489.296	216.88
489.877	211.88
490.458	204.88
491.038	183.88
491.619	180.88
492.2	173.88
492.78	159.88
493.361	155.88
493.941	151.88
494.522	146.88
495.102	134.88
495.682	133.88
496.262	125.88
496.843	113.88
497.423	114.88
498.003	118.88
498.583	110.88
499.163	104.88
499.742	108.88
500.322	103.88
500.902	90.88
501.482	98.88
502.061	104.88
502.641	93.88
503.22	90.88
503.8	85.88
504.379	80.88
504.958	81.88
505.538	82.88
506.117	82.88
506.696	80.88
507.275	80.88
507.854	79.88
508.433	77.88
509.012	77.88
509.591	84.88
510.169	82.88
510.748	89.88
511.327	87.88
511.905	88.88
512.484	92.88
513.062	90.88
513.641	102.88
514.219	108.88
514.797	109.88
515.375	120.88
515.954	122.88
516.532	130.88
517.11	138.88
517.688	152.88
518.266	147.88
518.843	162.88
519.421	171.88
519.999	184.88
520.577	189.88
521.154	203.88
521.732	203.88
522.309	210.88
522.887	228.88
523.464	234.88
524.041	243.88
524.619	256.88
525.196	257.88
525.773	268.88
526.35	272.88
526.927	277.88
527.504	288.88
528.081	291.88
528.658	304.88
529.235	301.88
529.811	304.88
530.388	302.88
530.964	315.88
531.541	320.88
532.117	310.88
532.694	322.88
533.27	323.88
533.846	310.88
534.423	308.88
534.999	313.88
535.575	329.88
536.151	295.88
536.727	310.88
537.303	308.88
537.879	320.88
538.455	301.88
539.03	313.88
539.606	290.88
540.182	296.88
540.757	296.88
541.333	300.88
541.908	289.88
542.483	290.88
543.059	290.88
543.634	287.88
544.209	279.88
544.784	282.88
545.359	286.88
545.934	275.88
546.509	274.88
547.084	278.88
547.659	257.88
548.234	262.88
548.808	263.88
549.383	252.88
549.958	261.88
550.532	261.88
551.107	258.88
551.681	255.88
552.255	257.88
552.83	255.88
553.404	251.88
553.978	246.88
554.552	249.88
555.126	249.88
555.7	245.88
556.274	257.88
556.848	249.88
557.422	252.88
557.995	258.88
558.569	248.88
559.143	258.88
559.716	266.88
560.29	278.88
560.863	274.88
561.437	273.88
562.01	263.88
562.583	274.88
563.156	278.88
563.729	282.88
564.302	293.88
564.875	281.88
565.448	297.88
566.021	311.88
566.594	300.88
567.167	301.88
567.74	309.88
568.312	314.88
568.885	318.88
569.457	313.88
570.03	324.88
570.602	318.88
571.174	330.88
571.747	319.88
572.319	322.88
572.891	330.88
573.463	332.88
574.035	321.88
574.607	332.88
575.179	311.88
575.751	333.88
576.323	311.88
576.894	320.88
577.466	321.88
578.038	327.88
578.609	319.88
579.181	324.88
579.752	314.88
580.323	327.88
580.895	327.88
581.466	319.88
582.037	327.88
582.608	320.88
583.179	323.88
583.75	342.88
584.321	336.88
584.892	335.88
585.463	335.88
586.033	345.88
586.604	331.88
587.175	346.88
587.745	334.88
588.316	334.88
588.886	327.88
589.457	345.88
590.027	331.88
590.597	347.88
591.167	339.88
591.737	335.88
592.308	328.88
592.878	330.88
593.447	333.88
594.017	329.88
594.587	326.88
595.157	331.88
595.727	329.88
596.296	312.88
596.866	318.88
597.435	303.88
598.005	318.88
598.574	309.88
599.143	310.88
599.713	313.88
600.282	315.88
600.851	311.88
601.42	304.88
601.989	288.88
602.558	308.88
603.127	304.88
603.696	307.88
604.265	306.88
604.833	303.88
605.402	300.88
605.971	306.88
606.539	294.88
607.108	297.88
607.676	287.88
608.244	303.88
608.813	297.88
609.381	292.88
609.949	304.88
610.517	295.88
611.085	283.88
611.653	285.88
612.221	295.88
612.789	292.88
613.357	282.88
613.924	287.88
614.492	291.88
615.06	296.88
615.627	275.88
616.195	292.88
616.762	287.88
617.329	278.88
617.897	280.88
618.464	277.88
619.031	265.88
619.598	272.88
620.165	274.88
620.732	276.88
621.299	280.88
621.866	269.88
622.433	270.88
623	280.88
623.566	271.88
624.133	268.88
624.7	277.88
625.266	271.88
625.832	263.88
626.399	276.88
626.965	269.88
627.531	260.88
628.098	267.88
628.664	261.88
629.23	266.88
629.796	257.88
630.362	272.88
630.928	253.88
631.493	255.88
632.059	253.88
632.625	242.88
633.19	252.88
633.756	255.88
634.322	246.88
634.887	247.88
635.452	247.88
636.018	239.88
636.583	238.88
637.148	246.88
637.713	236.88
638.278	236.88
638.843	238.88
639.408	228.88
639.973	228.88
640.538	235.88
641.103	231.88
641.667	229.88
642.232	224.88
642.797	225.88
643.361	218.88
643.926	221.88
644.49	215.88
645.054	214.88
645.619	215.88
646.183	207.88
646.747	212.88
647.311	210.88
647.875	209.88
648.439	199.88
649.003	198.88
649.567	195.88
650.131	209.88
650.694	202.88
651.258	202.88
651.822	201.88
652.385	187.88
652.949	188.88
653.512	194.88
654.075	194.88
654.639	190.88
655.202	180.88
655.765	175.88
656.328	171.88
656.891	170.88
657.454	172.88
658.017	174.88
658.58	180.88
659.143	169.88
659.705	165.88
660.268	156.88
660.83	169.88
661.393	165.88
661.955	174.88
662.518	166.88
663.08	161.88
663.643	155.88
664.205	161.88
664.767	158.88
665.329	158.88
665.891	159.88
666.453	155.88
667.015	150.88
667.577	151.88
668.139	160.88
668.7	148.88
669.262	146.88
669.824	144.88
670.385	142.88
670.947	150.88
671.508	138.88
672.069	144.88
672.631	144.88
673.192	140.88
673.753	143.88
674.314	136.88
674.875	133.88
675.436	127.88
675.997	134.88
676.558	129.88
677.119	133.88
677.679	127.88
678.24	121.88
678.801	124.88
679.361	128.88
679.922	121.88
680.482	125.88
681.042	125.88
681.603	133.88
682.163	130.88
682.723	116.88
683.283	123.88
683.843	125.88
684.403	124.88
684.963	120.88
685.523	115.88
686.083	120.88
686.642	111.88
687.202	116.88
687.762	114.88
688.321	114.88
688.881	106.88
689.44	115.88
690	109.88
690.559	100.88
691.118	100.88
691.677	103.88
692.236	100.88
692.795	95.88
693.354	96.88
693.913	95.88
694.472	96.88
695.031	95.88
695.59	95.88
696.148	83.88
696.707	87.88
697.265	88.88
697.824	88.88
698.382	85.88
698.941	85.88
699.499	87.88
700.057	86.88
700.615	81.88
701.173	85.88
701.731	76.88
702.289	81.88
702.847	72.88
703.405	78.88
703.963	84.88
704.521	73.88
705.078	76.88
705.636	78.88
706.194	74.88
706.751	68.88
707.308	69.88
707.866	79.88
708.423	67.88
708.98	67.88
709.537	64.88
710.095	64.88
710.652	63.88
711.209	62.88
711.765	62.88
712.322	66.88
712.879	58.88
713.436	54.88
713.992	61.88
714.549	58.88
715.106	62.88
715.662	61.88
716.218	54.88
716.775	55.88
717.331	59.88
717.887	57.88
718.443	57.88
719	51.88
719.556	52.88
720.112	51.88
720.667	51.88
721.223	54.88
721.779	49.88
722.335	46.88
722.89	52.88
723.446	53.88
724.002	49.88
724.557	47.88
725.112	51.88
725.668	49.88
726.223	45.88
726.778	49.88
727.333	46.88
727.888	43.88
728.443	49.88
728.998	45.88
729.553	44.88
730.108	38.88
730.663	41.88
731.218	41.88
731.772	36.88
732.327	37.88
732.881	39.88
733.436	41.88
733.99	39.88
734.545	35.88
735.099	39.88
735.653	35.88
736.207	35.88
736.761	35.88
737.315	30.88
737.869	35.88
738.423	34.88
738.977	30.88
739.531	29.88
740.084	41.88
740.638	37.88
741.192	30.88
741.745	34.88
742.299	36.88
742.852	32.88
743.405	32.88
743.959	39.88
744.512	25.88
745.065	31.88
745.618	27.88
746.171	27.88
746.724	28.88
747.277	31.88
747.83	30.88
748.382	28.88
748.935	25.88
749.488	22.88
750.04	26.88
750.593	26.88
751.145	26.88
751.698	28.88
752.25	28.88
752.802	24.88
753.354	21.88
753.906	30.88
754.458	24.88
755.01	30.88
755.562	28.88
756.114	22.88
756.666	23.88
757.218	18.88
757.769	26.88
758.321	20.88
758.873	19.88
759.424	22.88
759.975	24.88
760.527	21.88
761.078	20.88
761.629	22.88
762.181	18.88
762.732	23.88
763.283	20.88
763.834	19.88
764.385	20.88
764.935	16.88
765.486	14.88
766.037	18.88
766.588	20.88
767.138	14.88
767.689	20.88
768.239	23.88
768.79	22.88
769.34	13.88
769.89	17.88
770.44	22.88
770.991	16.88
771.541	11.88
772.091	16.88
772.641	15.88
773.191	14.88
773.74	22.88
774.29	18.88
774.84	16.88
775.39	18.88
775.939	13.88
776.489	14.88
777.038	14.88
777.588	12.88
778.137	20.88
778.686	18.88
779.235	15.88
779.784	15.88
780.334	17.88
780.883	12.88
781.431	12.88
781.98	12.88
782.529	12.88
783.078	16.88
783.627	13.88
784.175	13.88
784.724	16.88
785.272	15.88
785.821	10.88
786.369	9.88
786.917	13.88
787.466	10.88
788.014	16.88
788.562	16.88
789.11	11.88
789.658	13.88
790.206	8.88
790.754	10.88
791.302	16.88
791.849	15.88
792.397	11.88
792.945	11.88
793.492	14.88
794.04	11.88
794.587	12.88
795.134	11.88
795.682	10.88
796.229	12.88
796.776	10.88
797.323	9.88
797.87	6.88
798.417	12.88
798.964	13.88
799.511	8.88
800.058	10.88
800.604	7.88
801.151	7.88
801.698	11.88
802.244	11.88
802.791	11.88
803.337	7.88
803.883	11.88
804.43	9.88
804.976	7.88
805.522	8.88
806.068	5.88
806.614	8.88
807.16	9.88
807.706	7.88
808.252	11.88
808.797	7.88
809.343	7.88
809.889	8.88
810.434	3.88
810.98	8.88
811.525	5.88
812.071	4.88
812.616	8.88
813.161	10.88
813.706	4.88
814.252	6.88
814.797	6.88
815.342	7.88
815.886	6.88
816.431	0.88
816.976	9.88
817.521	5.88
818.066	7.88
818.61	11.88
819.155	7.88
819.699	6.88
820.244	7.88
820.788	7.88
821.332	6.88
821.876	7.88
822.421	5.88
822.965	6.88
823.509	5.88
824.053	3.88
824.597	4.88
825.14	7.88
825.684	6.88
826.228	6.88
826.771	6.88
827.315	8.88
827.859	7.88
828.402	2.88
828.945	4.88
829.489	3.88
830.032	7.88
830.575	2.88
831.118	4.88
831.661	4.88
832.204	7.88
832.747	2.88
833.29	1.88
833.833	3.88
834.376	7.88
834.918	2.88
835.461	7.88
836.004	3.88
836.546	2.88
837.088	3.88
837.631	4.88
838.173	3.88
838.715	2.88
839.257	1.88
839.8	3.88
840.342	2.88
840.884	0.88
841.425	3.88
841.967	6.88
842.509	4.88
843.051	4.88
843.592	-0.12
844.134	1.88
844.676	7.88
845.217	3.88
845.758	2.88
846.3	6.88
846.841	2.88
847.382	1.88
847.923	5.88
848.464	1.88
849.005	7.88
849.546	3.88
850.087	4.88
850.628	6.88
851.169	5.88
851.709	-0.12
852.25	4.88
852.791	3.88
853.331	4.88
853.871	0.88
854.412	1.88
854.952	5.88
855.492	2.88
856.033	2.88
856.573	1.88
857.113	0.88
857.653	3.88
858.193	3.88
858.732	4.88
859.272	5.88
859.812	3.88
860.352	3.88
860.891	0.88
861.431	0.88
861.97	2.88
862.509	2.88
863.049	1.88
863.588	0.88
864.127	2.88
864.666	-0.12
865.205	-0.12
865.744	2.88
866.283	0.88
866.822	4.88
867.361	2.88
867.9	1.88
868.438	5.88
868.977	1.88
869.516	8.88
870.054	2.88
870.593	2.88
871.131	6.88
871.669	0.88
872.207	1.88
872.746	2.88
873.284	1.88
873.822	0.88
874.36	2.88
874.898	-1.12
875.435	2.88
875.973	-0.12
876.511	2.88
877.048	-0.12
877.586	4.88
878.124	1.88
878.661	2.88
879.198	3.88
879.736	1.88
880.273	1.88
880.81	-0.12
881.347	1.88
881.884	3.88
882.421	4.88
882.958	2.88
883.495	5.88
884.032	3.88
884.569	0.88
885.105	-1.12
885.642	4.88
886.178	1.88
886.715	1.88
887.251	-0.12
887.788	3.88
888.324	4.88
888.86	-0.12
889.396	3.88
889.932	5.88
890.468	-0.12
891.004	3.88
891.54	3.88
892.076	1.88
892.612	4.88
893.147	-0.12
893.683	2.88
894.219	-0.12
894.754	3.88
895.29	4.88
895.825	3.88
896.36	-0.12
896.896	0.88
897.431	1.88
897.966	1.88
898.501	0.88
899.036	1.88
899.571	-1.12
900.106	1.88
900.64	2.88
901.175	2.88
901.71	1.88
902.244	-0.12
902.779	-1.12
903.313	0.88
903.848	-0.12
904.382	4.88
904.916	2.88
905.45	1.88
905.985	-0.12
906.519	-2.12
907.053	-2.12
907.587	-1.12
908.12	-0.12
908.654	-0.12
909.188	2.88
909.722	1.88
910.255	0.88
910.789	2.88
911.322	0.88
911.856	0.88
912.389	4.88
912.922	4.88
913.456	-0.12
913.989	0.88
914.522	3.88
915.055	1.88
915.588	3.88
916.121	2.88
916.653	7.88
917.186	-2.12
917.719	4.88
918.252	1.88
918.784	3.88
919.317	3.88
919.849	4.88
920.381	-1.12
920.914	2.88
921.446	3.88
921.978	-1.12
922.51	-1.12
923.042	3.88
923.574	2.88
924.106	1.88
924.638	1.88
925.17	1.88
925.701	1.88
926.233	3.88
926.765	-2.12
927.296	-1.12
927.828	2.88
928.359	1.88
928.89	2.88
929.422	1.88
929.953	3.88
930.484	-0.12
931.015	0.88
931.546	5.88
932.077	1.88
932.608	-1.12
933.138	0.88
933.669	-1.12
934.2	-6.12
934.73	-2.12
935.261	-2.12
