Data from LOOPyPMA-1_QEP046991__38__18-11-47-758.txt Node

Date: Sun May 11 18:11:47 CEST 2025
User: superuser
Spectrometer: QEP04699
Trigger mode: 4
Integration Time (sec): 1.000000E-1
Scans to average: 1
Electric dark correction enabled: true
Nonlinearity correction enabled: false
Boxcar width: 0
XAxis mode: Wavelengths
Number of Pixels in Spectrum: 1044
>>>>>Begin Spectral Data<<<<<
347.57	13.5
348.165	2.5
348.76	-4.5
349.355	-3.5
349.95	-2.5
350.545	-3.5
351.14	-1.5
351.735	2.5
352.33	-1.5
352.924	-5.5
353.519	1.5
354.114	0.5
354.708	-0.5
355.303	-3.5
355.897	-4.5
356.491	-3.5
357.086	-3.5
357.68	-5.5
358.274	-5.5
358.868	-0.5
359.462	-0.5
360.056	-2.5
360.65	-0.5
361.244	-1.5
361.838	-2.5
362.431	-0.5
363.025	-5.5
363.619	-3.5
364.212	-2.5
364.806	1.5
365.399	2.5
365.993	-1.5
366.586	-1.5
367.179	-3.5
367.772	-1.5
368.366	-2.5
368.959	-2.5
369.552	-5.5
370.145	0.5
370.738	-2.5
371.331	-0.5
371.923	1.5
372.516	-3.5
373.109	-3.5
373.701	-2.5
374.294	-2.5
374.887	-1.5
375.479	-0.5
376.071	-1.5
376.664	-1.5
377.256	-1.5
377.848	6.5
378.44	-0.5
379.033	-0.5
379.625	0.5
380.217	-1.5
380.808	-2.5
381.4	-2.5
381.992	-1.5
382.584	1.5
383.176	2.5
383.767	-3.5
384.359	-0.5
384.95	-1.5
385.542	0.5
386.133	-2.5
386.725	-2.5
387.316	-1.5
387.907	-0.5
388.498	-1.5
389.089	0.5
389.68	0.5
390.271	-1.5
390.862	-4.5
391.453	1.5
392.044	3.5
392.635	-2.5
393.225	0.5
393.816	3.5
394.407	-1.5
394.997	-3.5
395.588	-2.5
396.178	-0.5
396.768	-0.5
397.359	-1.5
397.949	3.5
398.539	-2.5
399.129	-0.5
399.719	-2.5
400.309	3.5
400.899	0.5
401.489	0.5
402.079	0.5
402.668	0.5
403.258	1.5
403.848	-0.5
404.437	0.5
405.027	3.5
405.616	0.5
406.206	3.5
406.795	1.5
407.384	0.5
407.973	4.5
408.563	2.5
409.152	-0.5
409.741	2.5
410.33	5.5
410.919	2.5
411.508	1.5
412.096	3.5
412.685	2.5
413.274	2.5
413.862	6.5
414.451	4.5
415.039	5.5
415.628	10.5
416.216	5.5
416.805	4.5
417.393	5.5
417.981	8.5
418.569	6.5
419.157	11.5
419.745	8.5
420.333	10.5
420.921	14.5
421.509	13.5
422.097	14.5
422.685	17.5
423.272	15.5
423.86	14.5
424.447	20.5
425.035	20.5
425.622	18.5
426.21	29.5
426.797	29.5
427.384	27.5
427.972	29.5
428.559	33.5
429.146	29.5
429.733	38.5
430.32	42.5
430.907	47.5
431.494	47.5
432.08	47.5
432.667	55.5
433.254	62.5
433.84	69.5
434.427	71.5
435.013	78.5
435.6	85.5
436.186	81.5
436.772	100.5
437.359	106.5
437.945	110.5
438.531	124.5
439.117	138.5
439.703	151.5
440.289	156.5
440.875	168.5
441.461	178.5
442.047	195.5
442.632	221.5
443.218	231.5
443.804	261.5
444.389	268.5
444.975	273.5
445.56	302.5
446.145	322.5
446.731	354.5
447.316	375.5
447.901	406.5
448.486	447.5
449.071	472.5
449.656	521.5
450.241	534.5
450.826	573.5
451.411	615.5
451.996	660.5
452.58	714.5
453.165	773.5
453.75	833.5
454.334	884.5
454.919	971.5
455.503	1037.5
456.087	1123.5
456.672	1200.5
457.256	1281.5
457.84	1374.5
458.424	1487.5
459.008	1566.5
459.592	1692.5
460.176	1774.5
460.76	1898.5
461.344	1944.5
461.927	2062.5
462.511	2134.5
463.095	2194.5
463.678	2233.5
464.262	2251.5
464.845	2284.5
465.429	2283.5
466.012	2241.5
466.595	2229.5
467.178	2132.5
467.762	2111.5
468.345	2010.5
468.928	1941.5
469.511	1855.5
470.094	1721.5
470.676	1649.5
471.259	1536.5
471.842	1435.5
472.425	1343.5
473.007	1254.5
473.59	1181.5
474.172	1098.5
474.755	1031.5
475.337	967.5
475.919	907.5
476.502	870.5
477.084	812.5
477.666	756.5
478.248	740.5
478.83	683.5
479.412	658.5
479.994	621.5
480.576	599.5
481.157	551.5
481.739	520.5
482.321	490.5
482.902	481.5
483.484	464.5
484.065	424.5
484.647	386.5
485.228	394.5
485.809	349.5
486.391	328.5
486.972	305.5
487.553	294.5
488.134	268.5
488.715	267.5
489.296	226.5
489.877	224.5
490.458	213.5
491.038	182.5
491.619	188.5
492.2	160.5
492.78	168.5
493.361	161.5
493.941	138.5
494.522	140.5
495.102	135.5
495.682	135.5
496.262	125.5
496.843	128.5
497.423	112.5
498.003	116.5
498.583	111.5
499.163	104.5
499.742	109.5
500.322	94.5
500.902	105.5
501.482	93.5
502.061	93.5
502.641	90.5
503.22	94.5
503.8	92.5
504.379	83.5
504.958	84.5
505.538	86.5
506.117	78.5
506.696	73.5
507.275	79.5
507.854	75.5
508.433	80.5
509.012	74.5
509.591	77.5
510.169	74.5
510.748	84.5
511.327	75.5
511.905	87.5
512.484	85.5
513.062	90.5
513.641	88.5
514.219	97.5
514.797	98.5
515.375	107.5
515.954	111.5
516.532	119.5
517.11	128.5
517.688	134.5
518.266	150.5
518.843	137.5
519.421	152.5
519.999	155.5
520.577	167.5
521.154	188.5
521.732	184.5
522.309	207.5
522.887	214.5
523.464	209.5
524.041	221.5
524.619	226.5
525.196	231.5
525.773	251.5
526.35	261.5
526.927	252.5
527.504	264.5
528.081	262.5
528.658	271.5
529.235	284.5
529.811	290.5
530.388	281.5
530.964	284.5
531.541	292.5
532.117	287.5
532.694	313.5
533.27	285.5
533.846	295.5
534.423	296.5
534.999	298.5
535.575	287.5
536.151	277.5
536.727	284.5
537.303	284.5
537.879	268.5
538.455	271.5
539.03	266.5
539.606	276.5
540.182	276.5
540.757	267.5
541.333	276.5
541.908	268.5
542.483	276.5
543.059	272.5
543.634	265.5
544.209	255.5
544.784	257.5
545.359	254.5
545.934	247.5
546.509	251.5
547.084	253.5
547.659	246.5
548.234	238.5
548.808	237.5
549.383	235.5
549.958	246.5
550.532	232.5
551.107	239.5
551.681	228.5
552.255	234.5
552.83	235.5
553.404	236.5
553.978	224.5
554.552	226.5
555.126	235.5
555.7	230.5
556.274	229.5
556.848	230.5
557.422	230.5
557.995	229.5
558.569	237.5
559.143	243.5
559.716	242.5
560.29	244.5
560.863	240.5
561.437	249.5
562.01	252.5
562.583	252.5
563.156	270.5
563.729	263.5
564.302	274.5
564.875	270.5
565.448	277.5
566.021	268.5
566.594	275.5
567.167	279.5
567.74	286.5
568.312	291.5
568.885	290.5
569.457	294.5
570.03	291.5
570.602	282.5
571.174	294.5
571.747	291.5
572.319	292.5
572.891	295.5
573.463	287.5
574.035	288.5
574.607	282.5
575.179	291.5
575.751	294.5
576.323	288.5
576.894	294.5
577.466	284.5
578.038	301.5
578.609	300.5
579.181	288.5
579.752	287.5
580.323	281.5
580.895	280.5
581.466	287.5
582.037	289.5
582.608	293.5
583.179	313.5
583.75	288.5
584.321	302.5
584.892	302.5
585.463	310.5
586.033	306.5
586.604	299.5
587.175	312.5
587.745	314.5
588.316	316.5
588.886	309.5
589.457	311.5
590.027	312.5
590.597	316.5
591.167	304.5
591.737	308.5
592.308	308.5
592.878	304.5
593.447	299.5
594.017	292.5
594.587	293.5
595.157	285.5
595.727	298.5
596.296	296.5
596.866	275.5
597.435	298.5
598.005	286.5
598.574	282.5
599.143	290.5
599.713	282.5
600.282	285.5
600.851	273.5
601.42	274.5
601.989	275.5
602.558	267.5
603.127	272.5
603.696	270.5
604.265	268.5
604.833	265.5
605.402	275.5
605.971	275.5
606.539	276.5
607.108	270.5
607.676	256.5
608.244	263.5
608.813	280.5
609.381	269.5
609.949	262.5
610.517	260.5
611.085	259.5
611.653	259.5
612.221	268.5
612.789	262.5
613.357	264.5
613.924	258.5
614.492	252.5
615.06	254.5
615.627	255.5
616.195	259.5
616.762	253.5
617.329	257.5
617.897	248.5
618.464	263.5
619.031	250.5
619.598	246.5
620.165	250.5
620.732	273.5
621.299	236.5
621.866	246.5
622.433	247.5
623	241.5
623.566	246.5
624.133	250.5
624.7	242.5
625.266	244.5
625.832	231.5
626.399	230.5
626.965	236.5
627.531	248.5
628.098	244.5
628.664	238.5
629.23	244.5
629.796	237.5
630.362	233.5
630.928	238.5
631.493	225.5
632.059	233.5
632.625	226.5
633.19	230.5
633.756	227.5
634.322	224.5
634.887	216.5
635.452	222.5
636.018	209.5
636.583	217.5
637.148	216.5
637.713	216.5
638.278	209.5
638.843	216.5
639.408	209.5
639.973	209.5
640.538	208.5
641.103	206.5
641.667	200.5
642.232	200.5
642.797	201.5
643.361	200.5
643.926	202.5
644.49	184.5
645.054	192.5
645.619	189.5
646.183	183.5
646.747	184.5
647.311	188.5
647.875	193.5
648.439	177.5
649.003	194.5
649.567	170.5
650.131	181.5
650.694	166.5
651.258	171.5
651.822	182.5
652.385	174.5
652.949	167.5
653.512	176.5
654.075	165.5
654.639	167.5
655.202	162.5
655.765	170.5
656.328	161.5
656.891	159.5
657.454	166.5
658.017	157.5
658.58	157.5
659.143	151.5
659.705	149.5
660.268	150.5
660.83	149.5
661.393	149.5
661.955	148.5
662.518	154.5
663.08	142.5
663.643	147.5
664.205	142.5
664.767	141.5
665.329	141.5
665.891	136.5
666.453	136.5
667.015	134.5
667.577	133.5
668.139	125.5
668.7	134.5
669.262	132.5
669.824	127.5
670.385	134.5
670.947	117.5
671.508	125.5
672.069	127.5
672.631	128.5
673.192	122.5
673.753	121.5
674.314	116.5
674.875	123.5
675.436	111.5
675.997	116.5
676.558	114.5
677.119	120.5
677.679	119.5
678.24	114.5
678.801	121.5
679.361	113.5
679.922	122.5
680.482	116.5
681.042	110.5
681.603	111.5
682.163	104.5
682.723	105.5
683.283	113.5
683.843	105.5
684.403	113.5
684.963	102.5
685.523	103.5
686.083	101.5
686.642	103.5
687.202	101.5
687.762	97.5
688.321	90.5
688.881	92.5
689.44	90.5
690	99.5
690.559	88.5
691.118	101.5
691.677	93.5
692.236	93.5
692.795	82.5
693.354	87.5
693.913	81.5
694.472	77.5
695.031	91.5
695.59	91.5
696.148	81.5
696.707	78.5
697.265	80.5
697.824	79.5
698.382	75.5
698.941	73.5
699.499	76.5
700.057	69.5
700.615	75.5
701.173	68.5
701.731	69.5
702.289	73.5
702.847	73.5
703.405	66.5
703.963	65.5
704.521	71.5
705.078	64.5
705.636	66.5
706.194	60.5
706.751	65.5
707.308	64.5
707.866	58.5
708.423	56.5
708.98	62.5
709.537	61.5
710.095	56.5
710.652	66.5
711.209	58.5
711.765	55.5
712.322	58.5
712.879	57.5
713.436	58.5
713.992	48.5
714.549	54.5
715.106	52.5
715.662	53.5
716.218	50.5
716.775	50.5
717.331	49.5
717.887	48.5
718.443	44.5
719	43.5
719.556	52.5
720.112	43.5
720.667	42.5
721.223	45.5
721.779	48.5
722.335	42.5
722.89	46.5
723.446	39.5
724.002	39.5
724.557	40.5
725.112	39.5
725.668	38.5
726.223	34.5
726.778	36.5
727.333	38.5
727.888	40.5
728.443	38.5
728.998	31.5
729.553	37.5
730.108	35.5
730.663	33.5
731.218	32.5
731.772	35.5
732.327	31.5
732.881	32.5
733.436	36.5
733.99	32.5
734.545	34.5
735.099	36.5
735.653	31.5
736.207	28.5
736.761	27.5
737.315	29.5
737.869	32.5
738.423	30.5
738.977	24.5
739.531	28.5
740.084	29.5
740.638	28.5
741.192	30.5
741.745	26.5
742.299	22.5
742.852	20.5
743.405	27.5
743.959	27.5
744.512	27.5
745.065	23.5
745.618	22.5
746.171	22.5
746.724	26.5
747.277	27.5
747.83	24.5
748.382	24.5
748.935	22.5
749.488	20.5
750.04	18.5
750.593	18.5
751.145	20.5
751.698	15.5
752.25	21.5
752.802	22.5
753.354	20.5
753.906	22.5
754.458	20.5
755.01	20.5
755.562	17.5
756.114	15.5
756.666	19.5
757.218	20.5
757.769	18.5
758.321	18.5
758.873	17.5
759.424	13.5
759.975	19.5
760.527	15.5
761.078	13.5
761.629	17.5
762.181	14.5
762.732	15.5
763.283	13.5
763.834	11.5
764.385	15.5
764.935	14.5
765.486	9.5
766.037	13.5
766.588	13.5
767.138	11.5
767.689	13.5
768.239	13.5
768.79	9.5
769.34	15.5
769.89	8.5
770.44	15.5
770.991	10.5
771.541	13.5
772.091	12.5
772.641	11.5
773.191	12.5
773.74	16.5
774.29	11.5
774.84	9.5
775.39	9.5
775.939	10.5
776.489	14.5
777.038	12.5
777.588	10.5
778.137	11.5
778.686	10.5
779.235	9.5
779.784	10.5
780.334	13.5
780.883	14.5
781.431	5.5
781.98	13.5
782.529	8.5
783.078	15.5
783.627	12.5
784.175	12.5
784.724	7.5
785.272	6.5
785.821	6.5
786.369	10.5
786.917	10.5
787.466	7.5
788.014	8.5
788.562	8.5
789.11	10.5
789.658	7.5
790.206	9.5
790.754	7.5
791.302	5.5
791.849	6.5
792.397	7.5
792.945	6.5
793.492	5.5
794.04	7.5
794.587	6.5
795.134	2.5
795.682	4.5
796.229	6.5
796.776	3.5
797.323	10.5
797.87	8.5
798.417	5.5
798.964	9.5
799.511	1.5
800.058	7.5
800.604	5.5
801.151	4.5
801.698	4.5
802.244	8.5
802.791	2.5
803.337	2.5
803.883	5.5
804.43	4.5
804.976	3.5
805.522	0.5
806.068	4.5
806.614	8.5
807.16	3.5
807.706	7.5
808.252	6.5
808.797	2.5
809.343	8.5
809.889	4.5
810.434	5.5
810.98	4.5
811.525	3.5
812.071	2.5
812.616	1.5
813.161	4.5
813.706	4.5
814.252	1.5
814.797	1.5
815.342	6.5
815.886	3.5
816.431	-0.5
816.976	3.5
817.521	3.5
818.066	4.5
818.61	2.5
819.155	4.5
819.699	3.5
820.244	0.5
820.788	3.5
821.332	0.5
821.876	2.5
822.421	2.5
822.965	2.5
823.509	3.5
824.053	2.5
824.597	1.5
825.14	2.5
825.684	-1.5
826.228	4.5
826.771	1.5
827.315	-3.5
827.859	3.5
828.402	1.5
828.945	5.5
829.489	5.5
830.032	5.5
830.575	-1.5
831.118	0.5
831.661	5.5
832.204	1.5
832.747	2.5
833.29	1.5
833.833	-2.5
834.376	2.5
834.918	4.5
835.461	-1.5
836.004	3.5
836.546	-1.5
837.088	2.5
837.631	3.5
838.173	3.5
838.715	3.5
839.257	-0.5
839.8	0.5
840.342	-0.5
840.884	1.5
841.425	-3.5
841.967	-0.5
842.509	-0.5
843.051	0.5
843.592	1.5
844.134	2.5
844.676	2.5
845.217	3.5
845.758	2.5
846.3	2.5
846.841	0.5
847.382	0.5
847.923	-0.5
848.464	2.5
849.005	5.5
849.546	-0.5
850.087	5.5
850.628	2.5
851.169	2.5
851.709	-1.5
852.25	0.5
852.791	-1.5
853.331	2.5
853.871	-0.5
854.412	-1.5
854.952	4.5
855.492	2.5
856.033	-0.5
856.573	0.5
857.113	0.5
857.653	-2.5
858.193	-1.5
858.732	-2.5
859.272	0.5
859.812	-2.5
860.352	0.5
860.891	-2.5
861.431	-2.5
861.97	-0.5
862.509	-4.5
863.049	0.5
863.588	0.5
864.127	-2.5
864.666	-0.5
865.205	-0.5
865.744	0.5
866.283	1.5
866.822	-3.5
867.361	-3.5
867.9	-2.5
868.438	-3.5
868.977	-2.5
869.516	-0.5
870.054	-1.5
870.593	-0.5
871.131	-0.5
871.669	3.5
872.207	-4.5
872.746	-0.5
873.284	-1.5
873.822	-2.5
874.36	-1.5
874.898	-2.5
875.435	0.5
875.973	-2.5
876.511	-1.5
877.048	-1.5
877.586	-1.5
878.124	-1.5
878.661	-4.5
879.198	-0.5
879.736	-3.5
880.273	-2.5
880.81	-0.5
881.347	-0.5
881.884	0.5
882.421	-1.5
882.958	-3.5
883.495	-1.5
884.032	-2.5
884.569	0.5
885.105	1.5
885.642	-1.5
886.178	-0.5
886.715	-1.5
887.251	0.5
887.788	-4.5
888.324	2.5
888.86	0.5
889.396	0.5
889.932	1.5
890.468	-0.5
891.004	-2.5
891.54	0.5
892.076	-0.5
892.612	0.5
893.147	-4.5
893.683	-0.5
894.219	-0.5
894.754	-3.5
895.29	-1.5
895.825	-1.5
896.36	-0.5
896.896	-0.5
897.431	-2.5
897.966	-0.5
898.501	-5.5
899.036	0.5
899.571	3.5
900.106	-0.5
900.64	-3.5
901.175	-1.5
901.71	0.5
902.244	0.5
902.779	-1.5
903.313	-0.5
903.848	-4.5
904.382	0.5
904.916	-2.5
905.45	1.5
905.985	-2.5
906.519	-0.5
907.053	-3.5
907.587	0.5
908.12	1.5
908.654	-0.5
909.188	0.5
909.722	-4.5
910.255	-1.5
910.789	-0.5
911.322	-0.5
911.856	-2.5
912.389	-3.5
912.922	-3.5
913.456	-2.5
913.989	1.5
914.522	-4.5
915.055	-2.5
915.588	-0.5
916.121	-1.5
916.653	-3.5
917.186	1.5
917.719	-3.5
918.252	-2.5
918.784	-1.5
919.317	-2.5
919.849	-1.5
920.381	-1.5
920.914	3.5
921.446	-2.5
921.978	-4.5
922.51	0.5
923.042	-2.5
923.574	-0.5
924.106	0.5
924.638	-1.5
925.17	-0.5
925.701	0.5
926.233	-0.5
926.765	1.5
927.296	-0.5
927.828	-1.5
928.359	-1.5
928.89	1.5
929.422	-8.5
929.953	-1.5
930.484	-1.5
931.015	-3.5
931.546	0.5
932.077	-5.5
932.608	-6.5
933.138	-1.5
933.669	0.5
934.2	-3.5
934.73	-1.5
935.261	-3.5
