Data from LOOPyPMA-1_QEP046991__22__18-11-31-744.txt Node

Date: Sun May 11 18:11:31 CEST 2025
User: superuser
Spectrometer: QEP04699
Trigger mode: 4
Integration Time (sec): 1.000000E-1
Scans to average: 1
Electric dark correction enabled: true
Nonlinearity correction enabled: false
Boxcar width: 0
XAxis mode: Wavelengths
Number of Pixels in Spectrum: 1044
>>>>>Begin Spectral Data<<<<<
347.57	7.62
348.165	2.62
348.76	-1.38
349.355	-3.38
349.95	1.62
350.545	1.62
351.14	-0.38
351.735	-0.38
352.33	1.62
352.924	0.62
353.519	0.62
354.114	0.62
354.708	1.62
355.303	-0.38
355.897	3.62
356.491	-0.38
357.086	-1.38
357.68	0.62
358.274	-0.38
358.868	2.62
359.462	0.62
360.056	1.62
360.65	4.62
361.244	0.62
361.838	-0.38
362.431	-4.38
363.025	-2.38
363.619	2.62
364.212	-0.38
364.806	-0.38
365.399	-0.38
365.993	-0.38
366.586	-0.38
367.179	-0.38
367.772	-1.38
368.366	3.62
368.959	-2.38
369.552	0.62
370.145	1.62
370.738	1.62
371.331	-2.38
371.923	2.62
372.516	1.62
373.109	-2.38
373.701	-0.38
374.294	1.62
374.887	-1.38
375.479	1.62
376.071	-1.38
376.664	0.62
377.256	2.62
377.848	3.62
378.44	-0.38
379.033	1.62
379.625	2.62
380.217	-0.38
380.808	-1.38
381.4	3.62
381.992	0.62
382.584	-1.38
383.176	-0.38
383.767	-0.38
384.359	4.62
384.95	4.62
385.542	-0.38
386.133	2.62
386.725	0.62
387.316	1.62
387.907	3.62
388.498	0.62
389.089	3.62
389.68	-2.38
390.271	-3.38
390.862	-1.38
391.453	2.62
392.044	-1.38
392.635	-2.38
393.225	2.62
393.816	-1.38
394.407	0.62
394.997	3.62
395.588	1.62
396.178	0.62
396.768	3.62
397.359	2.62
397.949	3.62
398.539	1.62
399.129	3.62
399.719	0.62
400.309	1.62
400.899	4.62
401.489	0.62
402.079	3.62
402.668	6.62
403.258	-3.38
403.848	2.62
404.437	3.62
405.027	2.62
405.616	1.62
406.206	1.62
406.795	3.62
407.384	3.62
407.973	6.62
408.563	4.62
409.152	0.62
409.741	-0.38
410.33	7.62
410.919	7.62
411.508	10.62
412.096	4.62
412.685	2.62
413.274	5.62
413.862	8.62
414.451	4.62
415.039	7.62
415.628	6.62
416.216	9.62
416.805	8.62
417.393	4.62
417.981	9.62
418.569	8.62
419.157	12.62
419.745	13.62
420.333	11.62
420.921	12.62
421.509	17.62
422.097	16.62
422.685	15.62
423.272	15.62
423.86	21.62
424.447	17.62
425.035	21.62
425.622	21.62
426.21	21.62
426.797	28.62
427.384	28.62
427.972	33.62
428.559	32.62
429.146	36.62
429.733	40.62
430.32	38.62
430.907	43.62
431.494	47.62
432.08	53.62
432.667	64.62
433.254	61.62
433.84	70.62
434.427	69.62
435.013	82.62
435.6	85.62
436.186	89.62
436.772	100.62
437.359	111.62
437.945	113.62
438.531	120.62
439.117	139.62
439.703	144.62
440.289	153.62
440.875	172.62
441.461	184.62
442.047	200.62
442.632	218.62
443.218	224.62
443.804	244.62
444.389	273.62
444.975	290.62
445.56	310.62
446.145	331.62
446.731	346.62
447.316	385.62
447.901	406.62
448.486	440.62
449.071	466.62
449.656	509.62
450.241	531.62
450.826	583.62
451.411	620.62
451.996	653.62
452.58	706.62
453.165	778.62
453.75	821.62
454.334	901.62
454.919	952.62
455.503	1013.62
456.087	1099.62
456.672	1166.62
457.256	1256.62
457.84	1368.62
458.424	1480.62
459.008	1567.62
459.592	1631.62
460.176	1739.62
460.76	1843.62
461.344	1946.62
461.927	2020.62
462.511	2086.62
463.095	2142.62
463.678	2167.62
464.262	2203.62
464.845	2215.62
465.429	2217.62
466.012	2170.62
466.595	2198.62
467.178	2112.62
467.762	2063.62
468.345	2002.62
468.928	1900.62
469.511	1853.62
470.094	1711.62
470.676	1618.62
471.259	1501.62
471.842	1400.62
472.425	1341.62
473.007	1242.62
473.59	1133.62
474.172	1071.62
474.755	1013.62
475.337	947.62
475.919	888.62
476.502	816.62
477.084	780.62
477.666	736.62
478.248	714.62
478.83	679.62
479.412	625.62
479.994	599.62
480.576	566.62
481.157	538.62
481.739	520.62
482.321	486.62
482.902	476.62
483.484	442.62
484.065	412.62
484.647	384.62
485.228	357.62
485.809	349.62
486.391	311.62
486.972	304.62
487.553	290.62
488.134	257.62
488.715	237.62
489.296	226.62
489.877	219.62
490.458	195.62
491.038	191.62
491.619	190.62
492.2	175.62
492.78	157.62
493.361	156.62
493.941	150.62
494.522	140.62
495.102	138.62
495.682	125.62
496.262	121.62
496.843	120.62
497.423	125.62
498.003	117.62
498.583	113.62
499.163	107.62
499.742	108.62
500.322	103.62
500.902	96.62
501.482	92.62
502.061	94.62
502.641	87.62
503.22	88.62
503.8	90.62
504.379	83.62
504.958	85.62
505.538	84.62
506.117	78.62
506.696	83.62
507.275	73.62
507.854	77.62
508.433	75.62
509.012	81.62
509.591	86.62
510.169	83.62
510.748	82.62
511.327	78.62
511.905	93.62
512.484	88.62
513.062	96.62
513.641	95.62
514.219	106.62
514.797	107.62
515.375	117.62
515.954	119.62
516.532	122.62
517.11	132.62
517.688	147.62
518.266	150.62
518.843	162.62
519.421	164.62
519.999	181.62
520.577	186.62
521.154	197.62
521.732	202.62
522.309	215.62
522.887	224.62
523.464	219.62
524.041	236.62
524.619	256.62
525.196	254.62
525.773	269.62
526.35	274.62
526.927	283.62
527.504	281.62
528.081	279.62
528.658	300.62
529.235	293.62
529.811	308.62
530.388	320.62
530.964	314.62
531.541	304.62
532.117	318.62
532.694	310.62
533.27	321.62
533.846	313.62
534.423	307.62
534.999	305.62
535.575	299.62
536.151	312.62
536.727	302.62
537.303	306.62
537.879	309.62
538.455	287.62
539.03	302.62
539.606	295.62
540.182	300.62
540.757	300.62
541.333	283.62
541.908	294.62
542.483	276.62
543.059	271.62
543.634	292.62
544.209	273.62
544.784	257.62
545.359	284.62
545.934	268.62
546.509	275.62
547.084	273.62
547.659	267.62
548.234	259.62
548.808	264.62
549.383	253.62
549.958	248.62
550.532	254.62
551.107	249.62
551.681	254.62
552.255	245.62
552.83	246.62
553.404	247.62
553.978	262.62
554.552	250.62
555.126	247.62
555.7	244.62
556.274	242.62
556.848	260.62
557.422	243.62
557.995	260.62
558.569	265.62
559.143	259.62
559.716	269.62
560.29	261.62
560.863	264.62
561.437	263.62
562.01	289.62
562.583	273.62
563.156	281.62
563.729	285.62
564.302	285.62
564.875	294.62
565.448	290.62
566.021	303.62
566.594	305.62
567.167	299.62
567.74	307.62
568.312	303.62
568.885	298.62
569.457	312.62
570.03	305.62
570.602	319.62
571.174	311.62
571.747	327.62
572.319	308.62
572.891	324.62
573.463	331.62
574.035	316.62
574.607	318.62
575.179	319.62
575.751	314.62
576.323	314.62
576.894	319.62
577.466	319.62
578.038	309.62
578.609	307.62
579.181	320.62
579.752	307.62
580.323	313.62
580.895	318.62
581.466	327.62
582.037	314.62
582.608	316.62
583.179	322.62
583.75	332.62
584.321	326.62
584.892	333.62
585.463	332.62
586.033	331.62
586.604	338.62
587.175	330.62
587.745	340.62
588.316	330.62
588.886	328.62
589.457	332.62
590.027	337.62
590.597	336.62
591.167	338.62
591.737	336.62
592.308	325.62
592.878	331.62
593.447	330.62
594.017	331.62
594.587	319.62
595.157	319.62
595.727	319.62
596.296	316.62
596.866	312.62
597.435	305.62
598.005	310.62
598.574	317.62
599.143	317.62
599.713	311.62
600.282	317.62
600.851	303.62
601.42	303.62
601.989	296.62
602.558	305.62
603.127	298.62
603.696	292.62
604.265	300.62
604.833	283.62
605.402	299.62
605.971	284.62
606.539	283.62
607.108	298.62
607.676	295.62
608.244	278.62
608.813	277.62
609.381	285.62
609.949	285.62
610.517	283.62
611.085	289.62
611.653	288.62
612.221	285.62
612.789	286.62
613.357	293.62
613.924	282.62
614.492	277.62
615.06	290.62
615.627	277.62
616.195	288.62
616.762	266.62
617.329	292.62
617.897	278.62
618.464	287.62
619.031	278.62
619.598	278.62
620.165	269.62
620.732	284.62
621.299	269.62
621.866	261.62
622.433	275.62
623	279.62
623.566	266.62
624.133	273.62
624.7	261.62
625.266	268.62
625.832	273.62
626.399	267.62
626.965	261.62
627.531	261.62
628.098	275.62
628.664	259.62
629.23	256.62
629.796	257.62
630.362	251.62
630.928	252.62
631.493	241.62
632.059	254.62
632.625	243.62
633.19	240.62
633.756	246.62
634.322	238.62
634.887	236.62
635.452	238.62
636.018	250.62
636.583	243.62
637.148	230.62
637.713	244.62
638.278	230.62
638.843	229.62
639.408	237.62
639.973	229.62
640.538	232.62
641.103	218.62
641.667	232.62
642.232	223.62
642.797	215.62
643.361	217.62
643.926	217.62
644.49	221.62
645.054	208.62
645.619	211.62
646.183	206.62
646.747	206.62
647.311	217.62
647.875	203.62
648.439	208.62
649.003	207.62
649.567	202.62
650.131	192.62
650.694	203.62
651.258	194.62
651.822	191.62
652.385	181.62
652.949	188.62
653.512	185.62
654.075	178.62
654.639	179.62
655.202	186.62
655.765	180.62
656.328	184.62
656.891	176.62
657.454	176.62
658.017	177.62
658.58	164.62
659.143	171.62
659.705	165.62
660.268	166.62
660.83	170.62
661.393	168.62
661.955	168.62
662.518	154.62
663.08	162.62
663.643	155.62
664.205	156.62
664.767	165.62
665.329	159.62
665.891	144.62
666.453	151.62
667.015	140.62
667.577	142.62
668.139	148.62
668.7	152.62
669.262	142.62
669.824	137.62
670.385	136.62
670.947	144.62
671.508	141.62
672.069	134.62
672.631	139.62
673.192	136.62
673.753	137.62
674.314	135.62
674.875	133.62
675.436	133.62
675.997	125.62
676.558	133.62
677.119	126.62
677.679	122.62
678.24	118.62
678.801	132.62
679.361	114.62
679.922	134.62
680.482	120.62
681.042	125.62
681.603	130.62
682.163	120.62
682.723	121.62
683.283	121.62
683.843	112.62
684.403	116.62
684.963	117.62
685.523	115.62
686.083	117.62
686.642	113.62
687.202	110.62
687.762	109.62
688.321	119.62
688.881	103.62
689.44	103.62
690	96.62
690.559	101.62
691.118	102.62
691.677	99.62
692.236	97.62
692.795	88.62
693.354	93.62
693.913	93.62
694.472	93.62
695.031	84.62
695.59	83.62
696.148	94.62
696.707	89.62
697.265	87.62
697.824	88.62
698.382	85.62
698.941	90.62
699.499	88.62
700.057	82.62
700.615	82.62
701.173	76.62
701.731	82.62
702.289	79.62
702.847	74.62
703.405	75.62
703.963	75.62
704.521	72.62
705.078	73.62
705.636	74.62
706.194	74.62
706.751	73.62
707.308	76.62
707.866	78.62
708.423	65.62
708.98	64.62
709.537	72.62
710.095	68.62
710.652	71.62
711.209	61.62
711.765	63.62
712.322	62.62
712.879	62.62
713.436	56.62
713.992	61.62
714.549	60.62
715.106	60.62
715.662	60.62
716.218	58.62
716.775	56.62
717.331	61.62
717.887	57.62
718.443	54.62
719	52.62
719.556	51.62
720.112	53.62
720.667	49.62
721.223	42.62
721.779	50.62
722.335	46.62
722.89	50.62
723.446	47.62
724.002	42.62
724.557	44.62
725.112	41.62
725.668	48.62
726.223	46.62
726.778	47.62
727.333	40.62
727.888	46.62
728.443	43.62
728.998	38.62
729.553	40.62
730.108	40.62
730.663	37.62
731.218	32.62
731.772	40.62
732.327	38.62
732.881	37.62
733.436	42.62
733.99	40.62
734.545	36.62
735.099	35.62
735.653	31.62
736.207	37.62
736.761	34.62
737.315	36.62
737.869	34.62
738.423	28.62
738.977	32.62
739.531	35.62
740.084	34.62
740.638	34.62
741.192	31.62
741.745	30.62
742.299	30.62
742.852	27.62
743.405	23.62
743.959	31.62
744.512	30.62
745.065	26.62
745.618	32.62
746.171	29.62
746.724	30.62
747.277	26.62
747.83	25.62
748.382	23.62
748.935	28.62
749.488	24.62
750.04	27.62
750.593	22.62
751.145	27.62
751.698	22.62
752.25	24.62
752.802	23.62
753.354	27.62
753.906	27.62
754.458	19.62
755.01	25.62
755.562	26.62
756.114	23.62
756.666	21.62
757.218	21.62
757.769	16.62
758.321	21.62
758.873	19.62
759.424	26.62
759.975	17.62
760.527	20.62
761.078	24.62
761.629	21.62
762.181	17.62
762.732	18.62
763.283	18.62
763.834	15.62
764.385	16.62
764.935	17.62
765.486	18.62
766.037	19.62
766.588	16.62
767.138	15.62
767.689	21.62
768.239	16.62
768.79	15.62
769.34	17.62
769.89	18.62
770.44	18.62
770.991	21.62
771.541	12.62
772.091	16.62
772.641	10.62
773.191	15.62
773.74	13.62
774.29	15.62
774.84	16.62
775.39	13.62
775.939	11.62
776.489	20.62
777.038	13.62
777.588	12.62
778.137	18.62
778.686	14.62
779.235	9.62
779.784	12.62
780.334	11.62
780.883	13.62
781.431	13.62
781.98	14.62
782.529	13.62
783.078	10.62
783.627	12.62
784.175	11.62
784.724	8.62
785.272	11.62
785.821	12.62
786.369	12.62
786.917	12.62
787.466	9.62
788.014	7.62
788.562	9.62
789.11	11.62
789.658	10.62
790.206	10.62
790.754	13.62
791.302	10.62
791.849	11.62
792.397	9.62
792.945	9.62
793.492	11.62
794.04	8.62
794.587	8.62
795.134	10.62
795.682	12.62
796.229	7.62
796.776	11.62
797.323	6.62
797.87	8.62
798.417	4.62
798.964	10.62
799.511	9.62
800.058	7.62
800.604	5.62
801.151	9.62
801.698	6.62
802.244	6.62
802.791	2.62
803.337	11.62
803.883	6.62
804.43	7.62
804.976	3.62
805.522	8.62
806.068	7.62
806.614	8.62
807.16	6.62
807.706	7.62
808.252	6.62
808.797	8.62
809.343	8.62
809.889	3.62
810.434	8.62
810.98	5.62
811.525	6.62
812.071	6.62
812.616	3.62
813.161	6.62
813.706	6.62
814.252	6.62
814.797	2.62
815.342	4.62
815.886	6.62
816.431	8.62
816.976	4.62
817.521	3.62
818.066	2.62
818.61	5.62
819.155	7.62
819.699	10.62
820.244	4.62
820.788	5.62
821.332	-0.38
821.876	4.62
822.421	2.62
822.965	3.62
823.509	5.62
824.053	5.62
824.597	-0.38
825.14	2.62
825.684	6.62
826.228	5.62
826.771	4.62
827.315	6.62
827.859	2.62
828.402	1.62
828.945	4.62
829.489	1.62
830.032	4.62
830.575	3.62
831.118	4.62
831.661	3.62
832.204	3.62
832.747	2.62
833.29	4.62
833.833	5.62
834.376	0.62
834.918	5.62
835.461	4.62
836.004	6.62
836.546	6.62
837.088	7.62
837.631	4.62
838.173	4.62
838.715	2.62
839.257	4.62
839.8	7.62
840.342	3.62
840.884	1.62
841.425	3.62
841.967	4.62
842.509	3.62
843.051	0.62
843.592	5.62
844.134	5.62
844.676	3.62
845.217	0.62
845.758	6.62
846.3	1.62
846.841	-3.38
847.382	3.62
847.923	2.62
848.464	3.62
849.005	0.62
849.546	2.62
850.087	2.62
850.628	-0.38
851.169	-1.38
851.709	2.62
852.25	1.62
852.791	5.62
853.331	-0.38
853.871	1.62
854.412	-0.38
854.952	4.62
855.492	2.62
856.033	5.62
856.573	4.62
857.113	-1.38
857.653	5.62
858.193	-0.38
858.732	-0.38
859.272	4.62
859.812	0.62
860.352	4.62
860.891	0.62
861.431	-3.38
861.97	-1.38
862.509	-1.38
863.049	5.62
863.588	3.62
864.127	4.62
864.666	3.62
865.205	1.62
865.744	1.62
866.283	1.62
866.822	3.62
867.361	0.62
867.9	1.62
868.438	2.62
868.977	1.62
869.516	1.62
870.054	5.62
870.593	2.62
871.131	3.62
871.669	-0.38
872.207	2.62
872.746	0.62
873.284	3.62
873.822	-1.38
874.36	4.62
874.898	-1.38
875.435	2.62
875.973	3.62
876.511	3.62
877.048	-0.38
877.586	1.62
878.124	1.62
878.661	3.62
879.198	0.62
879.736	0.62
880.273	2.62
880.81	-0.38
881.347	1.62
881.884	4.62
882.421	0.62
882.958	3.62
883.495	1.62
884.032	2.62
884.569	1.62
885.105	4.62
885.642	1.62
886.178	2.62
886.715	2.62
887.251	1.62
887.788	-0.38
888.324	2.62
888.86	1.62
889.396	-1.38
889.932	-0.38
890.468	2.62
891.004	3.62
891.54	1.62
892.076	1.62
892.612	4.62
893.147	3.62
893.683	3.62
894.219	1.62
894.754	1.62
895.29	2.62
895.825	0.62
896.36	1.62
896.896	1.62
897.431	2.62
897.966	-0.38
898.501	-0.38
899.036	1.62
899.571	1.62
900.106	-1.38
900.64	0.62
901.175	0.62
901.71	-0.38
902.244	0.62
902.779	-1.38
903.313	-0.38
903.848	-2.38
904.382	3.62
904.916	-0.38
905.45	-0.38
905.985	2.62
906.519	2.62
907.053	-2.38
907.587	0.62
908.12	-1.38
908.654	1.62
909.188	-2.38
909.722	-1.38
910.255	-0.38
910.789	-1.38
911.322	1.62
911.856	1.62
912.389	-2.38
912.922	3.62
913.456	1.62
913.989	0.62
914.522	1.62
915.055	2.62
915.588	-0.38
916.121	1.62
916.653	-1.38
917.186	2.62
917.719	-2.38
918.252	0.62
918.784	2.62
919.317	0.62
919.849	0.62
920.381	-1.38
920.914	3.62
921.446	1.62
921.978	2.62
922.51	-0.38
923.042	3.62
923.574	0.62
924.106	-0.38
924.638	1.62
925.17	0.62
925.701	0.62
926.233	0.62
926.765	1.62
927.296	0.62
927.828	0.62
928.359	0.62
928.89	-1.38
929.422	3.62
929.953	1.62
930.484	-1.38
931.015	-1.38
931.546	-0.38
932.077	-0.38
932.608	-6.38
933.138	-2.38
933.669	-3.38
934.2	0.62
934.73	-1.38
935.261	-1.38
