Data from LOOPyPMA-1_QEP046991__35__18-11-44-758.txt Node

Date: Sun May 11 18:11:44 CEST 2025
User: superuser
Spectrometer: QEP04699
Trigger mode: 4
Integration Time (sec): 1.000000E-1
Scans to average: 1
Electric dark correction enabled: true
Nonlinearity correction enabled: false
Boxcar width: 0
XAxis mode: Wavelengths
Number of Pixels in Spectrum: 1044
>>>>>Begin Spectral Data<<<<<
347.57	11.5
348.165	2.5
348.76	-3.5
349.355	-0.5
349.95	-1.5
350.545	-6.5
351.14	-0.5
351.735	-5.5
352.33	-4.5
352.924	-1.5
353.519	0.5
354.114	-3.5
354.708	-1.5
355.303	-1.5
355.897	-0.5
356.491	1.5
357.086	-3.5
357.68	1.5
358.274	-0.5
358.868	-3.5
359.462	3.5
360.056	-1.5
360.65	-0.5
361.244	-0.5
361.838	3.5
362.431	-3.5
363.025	-1.5
363.619	-1.5
364.212	0.5
364.806	-1.5
365.399	-2.5
365.993	1.5
366.586	-3.5
367.179	0.5
367.772	-2.5
368.366	2.5
368.959	-0.5
369.552	2.5
370.145	-1.5
370.738	-4.5
371.331	-1.5
371.923	2.5
372.516	0.5
373.109	0.5
373.701	3.5
374.294	1.5
374.887	-2.5
375.479	-1.5
376.071	1.5
376.664	2.5
377.256	1.5
377.848	0.5
378.44	2.5
379.033	-1.5
379.625	-0.5
380.217	0.5
380.808	-2.5
381.4	0.5
381.992	-0.5
382.584	0.5
383.176	-1.5
383.767	2.5
384.359	0.5
384.95	-0.5
385.542	-0.5
386.133	2.5
386.725	0.5
387.316	-2.5
387.907	-1.5
388.498	-1.5
389.089	1.5
389.68	2.5
390.271	-2.5
390.862	1.5
391.453	0.5
392.044	1.5
392.635	-0.5
393.225	3.5
393.816	2.5
394.407	-1.5
394.997	-4.5
395.588	-1.5
396.178	-0.5
396.768	-0.5
397.359	-0.5
397.949	4.5
398.539	0.5
399.129	1.5
399.719	0.5
400.309	-0.5
400.899	-1.5
401.489	1.5
402.079	1.5
402.668	-0.5
403.258	2.5
403.848	6.5
404.437	0.5
405.027	4.5
405.616	3.5
406.206	5.5
406.795	5.5
407.384	-0.5
407.973	7.5
408.563	0.5
409.152	-1.5
409.741	1.5
410.33	3.5
410.919	4.5
411.508	5.5
412.096	5.5
412.685	3.5
413.274	2.5
413.862	4.5
414.451	5.5
415.039	8.5
415.628	7.5
416.216	6.5
416.805	5.5
417.393	9.5
417.981	9.5
418.569	14.5
419.157	9.5
419.745	11.5
420.333	9.5
420.921	14.5
421.509	14.5
422.097	12.5
422.685	17.5
423.272	16.5
423.86	18.5
424.447	19.5
425.035	21.5
425.622	23.5
426.21	23.5
426.797	32.5
427.384	28.5
427.972	27.5
428.559	36.5
429.146	34.5
429.733	36.5
430.32	43.5
430.907	49.5
431.494	47.5
432.08	53.5
432.667	56.5
433.254	60.5
433.84	70.5
434.427	67.5
435.013	84.5
435.6	84.5
436.186	86.5
436.772	103.5
437.359	107.5
437.945	116.5
438.531	122.5
439.117	133.5
439.703	147.5
440.289	159.5
440.875	169.5
441.461	176.5
442.047	199.5
442.632	212.5
443.218	228.5
443.804	239.5
444.389	272.5
444.975	279.5
445.56	303.5
446.145	320.5
446.731	357.5
447.316	377.5
447.901	403.5
448.486	442.5
449.071	463.5
449.656	501.5
450.241	528.5
450.826	586.5
451.411	609.5
451.996	666.5
452.58	714.5
453.165	770.5
453.75	805.5
454.334	908.5
454.919	952.5
455.503	1047.5
456.087	1122.5
456.672	1182.5
457.256	1293.5
457.84	1374.5
458.424	1460.5
459.008	1571.5
459.592	1657.5
460.176	1754.5
460.76	1862.5
461.344	1935.5
461.927	2016.5
462.511	2079.5
463.095	2184.5
463.678	2187.5
464.262	2219.5
464.845	2266.5
465.429	2275.5
466.012	2209.5
466.595	2179.5
467.178	2108.5
467.762	2077.5
468.345	1993.5
468.928	1918.5
469.511	1819.5
470.094	1752.5
470.676	1619.5
471.259	1506.5
471.842	1413.5
472.425	1322.5
473.007	1238.5
473.59	1150.5
474.172	1065.5
474.755	1011.5
475.337	947.5
475.919	869.5
476.502	858.5
477.084	802.5
477.666	749.5
478.248	714.5
478.83	684.5
479.412	642.5
479.994	603.5
480.576	564.5
481.157	547.5
481.739	539.5
482.321	506.5
482.902	476.5
483.484	440.5
484.065	419.5
484.647	405.5
485.228	375.5
485.809	355.5
486.391	328.5
486.972	314.5
487.553	292.5
488.134	268.5
488.715	252.5
489.296	226.5
489.877	226.5
490.458	206.5
491.038	192.5
491.619	177.5
492.2	173.5
492.78	162.5
493.361	154.5
493.941	145.5
494.522	141.5
495.102	128.5
495.682	127.5
496.262	121.5
496.843	124.5
497.423	118.5
498.003	112.5
498.583	114.5
499.163	102.5
499.742	104.5
500.322	102.5
500.902	86.5
501.482	95.5
502.061	89.5
502.641	90.5
503.22	91.5
503.8	85.5
504.379	83.5
504.958	83.5
505.538	84.5
506.117	78.5
506.696	70.5
507.275	80.5
507.854	77.5
508.433	83.5
509.012	72.5
509.591	68.5
510.169	77.5
510.748	80.5
511.327	85.5
511.905	84.5
512.484	86.5
513.062	95.5
513.641	96.5
514.219	97.5
514.797	110.5
515.375	108.5
515.954	121.5
516.532	122.5
517.11	121.5
517.688	136.5
518.266	148.5
518.843	149.5
519.421	164.5
519.999	168.5
520.577	171.5
521.154	187.5
521.732	195.5
522.309	191.5
522.887	205.5
523.464	221.5
524.041	221.5
524.619	238.5
525.196	246.5
525.773	246.5
526.35	259.5
526.927	269.5
527.504	267.5
528.081	284.5
528.658	276.5
529.235	272.5
529.811	290.5
530.388	297.5
530.964	291.5
531.541	292.5
532.117	292.5
532.694	290.5
533.27	297.5
533.846	291.5
534.423	289.5
534.999	290.5
535.575	300.5
536.151	285.5
536.727	283.5
537.303	292.5
537.879	291.5
538.455	292.5
539.03	294.5
539.606	275.5
540.182	287.5
540.757	279.5
541.333	275.5
541.908	260.5
542.483	257.5
543.059	271.5
543.634	267.5
544.209	268.5
544.784	263.5
545.359	262.5
545.934	267.5
546.509	251.5
547.084	265.5
547.659	243.5
548.234	246.5
548.808	242.5
549.383	246.5
549.958	234.5
550.532	239.5
551.107	231.5
551.681	243.5
552.255	234.5
552.83	236.5
553.404	237.5
553.978	235.5
554.552	227.5
555.126	230.5
555.7	229.5
556.274	230.5
556.848	229.5
557.422	229.5
557.995	248.5
558.569	241.5
559.143	250.5
559.716	243.5
560.29	244.5
560.863	251.5
561.437	256.5
562.01	250.5
562.583	264.5
563.156	262.5
563.729	265.5
564.302	281.5
564.875	263.5
565.448	285.5
566.021	288.5
566.594	294.5
567.167	280.5
567.74	284.5
568.312	284.5
568.885	286.5
569.457	295.5
570.03	279.5
570.602	291.5
571.174	295.5
571.747	313.5
572.319	304.5
572.891	296.5
573.463	293.5
574.035	304.5
574.607	292.5
575.179	302.5
575.751	301.5
576.323	304.5
576.894	295.5
577.466	290.5
578.038	296.5
578.609	294.5
579.181	300.5
579.752	300.5
580.323	309.5
580.895	294.5
581.466	290.5
582.037	298.5
582.608	304.5
583.179	301.5
583.75	292.5
584.321	310.5
584.892	304.5
585.463	304.5
586.033	315.5
586.604	307.5
587.175	304.5
587.745	306.5
588.316	317.5
588.886	321.5
589.457	315.5
590.027	323.5
590.597	308.5
591.167	315.5
591.737	293.5
592.308	313.5
592.878	308.5
593.447	299.5
594.017	301.5
594.587	302.5
595.157	305.5
595.727	287.5
596.296	292.5
596.866	289.5
597.435	288.5
598.005	288.5
598.574	281.5
599.143	299.5
599.713	280.5
600.282	282.5
600.851	281.5
601.42	273.5
601.989	272.5
602.558	288.5
603.127	283.5
603.696	272.5
604.265	286.5
604.833	272.5
605.402	265.5
605.971	269.5
606.539	259.5
607.108	274.5
607.676	267.5
608.244	263.5
608.813	270.5
609.381	256.5
609.949	265.5
610.517	266.5
611.085	260.5
611.653	268.5
612.221	265.5
612.789	265.5
613.357	273.5
613.924	261.5
614.492	267.5
615.06	258.5
615.627	253.5
616.195	261.5
616.762	272.5
617.329	259.5
617.897	259.5
618.464	264.5
619.031	257.5
619.598	251.5
620.165	262.5
620.732	256.5
621.299	264.5
621.866	268.5
622.433	257.5
623	250.5
623.566	264.5
624.133	245.5
624.7	261.5
625.266	245.5
625.832	252.5
626.399	234.5
626.965	256.5
627.531	236.5
628.098	247.5
628.664	232.5
629.23	250.5
629.796	238.5
630.362	239.5
630.928	236.5
631.493	237.5
632.059	234.5
632.625	235.5
633.19	245.5
633.756	232.5
634.322	229.5
634.887	239.5
635.452	233.5
636.018	224.5
636.583	216.5
637.148	226.5
637.713	220.5
638.278	215.5
638.843	221.5
639.408	223.5
639.973	206.5
640.538	207.5
641.103	204.5
641.667	203.5
642.232	196.5
642.797	199.5
643.361	207.5
643.926	208.5
644.49	199.5
645.054	193.5
645.619	188.5
646.183	201.5
646.747	193.5
647.311	202.5
647.875	183.5
648.439	186.5
649.003	187.5
649.567	183.5
650.131	181.5
650.694	191.5
651.258	174.5
651.822	173.5
652.385	174.5
652.949	184.5
653.512	168.5
654.075	184.5
654.639	174.5
655.202	171.5
655.765	164.5
656.328	158.5
656.891	161.5
657.454	165.5
658.017	152.5
658.58	163.5
659.143	159.5
659.705	166.5
660.268	154.5
660.83	159.5
661.393	160.5
661.955	150.5
662.518	148.5
663.08	147.5
663.643	148.5
664.205	151.5
664.767	150.5
665.329	142.5
665.891	138.5
666.453	146.5
667.015	147.5
667.577	140.5
668.139	135.5
668.7	136.5
669.262	137.5
669.824	130.5
670.385	130.5
670.947	133.5
671.508	130.5
672.069	132.5
672.631	128.5
673.192	125.5
673.753	131.5
674.314	129.5
674.875	124.5
675.436	113.5
675.997	124.5
676.558	118.5
677.119	114.5
677.679	119.5
678.24	118.5
678.801	113.5
679.361	112.5
679.922	111.5
680.482	119.5
681.042	117.5
681.603	112.5
682.163	117.5
682.723	119.5
683.283	106.5
683.843	111.5
684.403	112.5
684.963	109.5
685.523	104.5
686.083	109.5
686.642	109.5
687.202	106.5
687.762	98.5
688.321	104.5
688.881	95.5
689.44	97.5
690	93.5
690.559	98.5
691.118	97.5
691.677	96.5
692.236	88.5
692.795	90.5
693.354	98.5
693.913	90.5
694.472	91.5
695.031	80.5
695.59	88.5
696.148	81.5
696.707	79.5
697.265	76.5
697.824	85.5
698.382	79.5
698.941	75.5
699.499	77.5
700.057	76.5
700.615	80.5
701.173	74.5
701.731	70.5
702.289	72.5
702.847	74.5
703.405	65.5
703.963	70.5
704.521	67.5
705.078	67.5
705.636	65.5
706.194	60.5
706.751	65.5
707.308	67.5
707.866	60.5
708.423	66.5
708.98	60.5
709.537	62.5
710.095	54.5
710.652	64.5
711.209	60.5
711.765	56.5
712.322	61.5
712.879	56.5
713.436	58.5
713.992	53.5
714.549	48.5
715.106	55.5
715.662	56.5
716.218	56.5
716.775	47.5
717.331	50.5
717.887	49.5
718.443	48.5
719	48.5
719.556	53.5
720.112	53.5
720.667	49.5
721.223	46.5
721.779	39.5
722.335	45.5
722.89	43.5
723.446	43.5
724.002	37.5
724.557	43.5
725.112	38.5
725.668	49.5
726.223	34.5
726.778	43.5
727.333	44.5
727.888	38.5
728.443	41.5
728.998	33.5
729.553	39.5
730.108	34.5
730.663	40.5
731.218	36.5
731.772	35.5
732.327	36.5
732.881	35.5
733.436	32.5
733.99	34.5
734.545	33.5
735.099	31.5
735.653	31.5
736.207	34.5
736.761	34.5
737.315	30.5
737.869	37.5
738.423	31.5
738.977	31.5
739.531	31.5
740.084	24.5
740.638	30.5
741.192	27.5
741.745	30.5
742.299	26.5
742.852	27.5
743.405	25.5
743.959	26.5
744.512	31.5
745.065	29.5
745.618	28.5
746.171	26.5
746.724	25.5
747.277	29.5
747.83	23.5
748.382	20.5
748.935	20.5
749.488	22.5
750.04	23.5
750.593	22.5
751.145	31.5
751.698	22.5
752.25	22.5
752.802	19.5
753.354	26.5
753.906	19.5
754.458	19.5
755.01	17.5
755.562	23.5
756.114	20.5
756.666	19.5
757.218	22.5
757.769	19.5
758.321	16.5
758.873	21.5
759.424	15.5
759.975	18.5
760.527	15.5
761.078	14.5
761.629	21.5
762.181	17.5
762.732	14.5
763.283	16.5
763.834	15.5
764.385	18.5
764.935	11.5
765.486	13.5
766.037	16.5
766.588	11.5
767.138	15.5
767.689	13.5
768.239	18.5
768.79	13.5
769.34	12.5
769.89	12.5
770.44	15.5
770.991	13.5
771.541	11.5
772.091	14.5
772.641	13.5
773.191	14.5
773.74	17.5
774.29	8.5
774.84	8.5
775.39	12.5
775.939	14.5
776.489	15.5
777.038	15.5
777.588	11.5
778.137	15.5
778.686	14.5
779.235	14.5
779.784	12.5
780.334	16.5
780.883	11.5
781.431	12.5
781.98	13.5
782.529	8.5
783.078	12.5
783.627	12.5
784.175	11.5
784.724	12.5
785.272	9.5
785.821	12.5
786.369	7.5
786.917	5.5
787.466	13.5
788.014	7.5
788.562	9.5
789.11	9.5
789.658	9.5
790.206	6.5
790.754	8.5
791.302	11.5
791.849	11.5
792.397	8.5
792.945	11.5
793.492	6.5
794.04	7.5
794.587	4.5
795.134	8.5
795.682	9.5
796.229	10.5
796.776	9.5
797.323	11.5
797.87	9.5
798.417	3.5
798.964	5.5
799.511	5.5
800.058	3.5
800.604	7.5
801.151	12.5
801.698	6.5
802.244	5.5
802.791	7.5
803.337	13.5
803.883	8.5
804.43	5.5
804.976	6.5
805.522	7.5
806.068	6.5
806.614	6.5
807.16	6.5
807.706	7.5
808.252	8.5
808.797	6.5
809.343	2.5
809.889	5.5
810.434	-0.5
810.98	3.5
811.525	3.5
812.071	2.5
812.616	6.5
813.161	3.5
813.706	5.5
814.252	2.5
814.797	3.5
815.342	-1.5
815.886	2.5
816.431	5.5
816.976	4.5
817.521	2.5
818.066	7.5
818.61	5.5
819.155	1.5
819.699	0.5
820.244	3.5
820.788	4.5
821.332	-0.5
821.876	2.5
822.421	4.5
822.965	3.5
823.509	3.5
824.053	6.5
824.597	3.5
825.14	4.5
825.684	0.5
826.228	8.5
826.771	1.5
827.315	4.5
827.859	2.5
828.402	5.5
828.945	3.5
829.489	1.5
830.032	0.5
830.575	-1.5
831.118	3.5
831.661	3.5
832.204	1.5
832.747	1.5
833.29	1.5
833.833	-2.5
834.376	-4.5
834.918	2.5
835.461	0.5
836.004	4.5
836.546	-0.5
837.088	4.5
837.631	5.5
838.173	2.5
838.715	-0.5
839.257	0.5
839.8	0.5
840.342	3.5
840.884	3.5
841.425	-1.5
841.967	2.5
842.509	-1.5
843.051	2.5
843.592	2.5
844.134	3.5
844.676	0.5
845.217	0.5
845.758	0.5
846.3	1.5
846.841	-1.5
847.382	1.5
847.923	0.5
848.464	1.5
849.005	-1.5
849.546	-0.5
850.087	-1.5
850.628	2.5
851.169	0.5
851.709	2.5
852.25	-0.5
852.791	1.5
853.331	-0.5
853.871	-1.5
854.412	3.5
854.952	0.5
855.492	-0.5
856.033	3.5
856.573	-1.5
857.113	0.5
857.653	0.5
858.193	2.5
858.732	1.5
859.272	1.5
859.812	3.5
860.352	1.5
860.891	-1.5
861.431	1.5
861.97	2.5
862.509	-0.5
863.049	-0.5
863.588	-1.5
864.127	-0.5
864.666	0.5
865.205	2.5
865.744	-1.5
866.283	-0.5
866.822	3.5
867.361	-0.5
867.9	1.5
868.438	1.5
868.977	-0.5
869.516	3.5
870.054	0.5
870.593	-0.5
871.131	0.5
871.669	0.5
872.207	-0.5
872.746	-0.5
873.284	1.5
873.822	-2.5
874.36	0.5
874.898	-1.5
875.435	2.5
875.973	3.5
876.511	-1.5
877.048	0.5
877.586	2.5
878.124	-1.5
878.661	-0.5
879.198	-1.5
879.736	-1.5
880.273	0.5
880.81	-2.5
881.347	-0.5
881.884	0.5
882.421	0.5
882.958	-1.5
883.495	3.5
884.032	-0.5
884.569	-1.5
885.105	-1.5
885.642	2.5
886.178	-2.5
886.715	-3.5
887.251	0.5
887.788	2.5
888.324	2.5
888.86	0.5
889.396	1.5
889.932	1.5
890.468	1.5
891.004	-0.5
891.54	0.5
892.076	-0.5
892.612	-3.5
893.147	0.5
893.683	3.5
894.219	-2.5
894.754	-0.5
895.29	-1.5
895.825	-0.5
896.36	-0.5
896.896	-1.5
897.431	-1.5
897.966	-1.5
898.501	2.5
899.036	-3.5
899.571	-3.5
900.106	-2.5
900.64	-4.5
901.175	-3.5
901.71	1.5
902.244	-0.5
902.779	-5.5
903.313	-2.5
903.848	-1.5
904.382	1.5
904.916	-0.5
905.45	-3.5
905.985	0.5
906.519	3.5
907.053	0.5
907.587	-2.5
908.12	-0.5
908.654	-1.5
909.188	-0.5
909.722	-2.5
910.255	0.5
910.789	-0.5
911.322	-2.5
911.856	-2.5
912.389	-2.5
912.922	1.5
913.456	0.5
913.989	3.5
914.522	3.5
915.055	0.5
915.588	0.5
916.121	1.5
916.653	0.5
917.186	-2.5
917.719	1.5
918.252	-3.5
918.784	0.5
919.317	-1.5
919.849	0.5
920.381	-2.5
920.914	1.5
921.446	1.5
921.978	0.5
922.51	-3.5
923.042	-2.5
923.574	-4.5
924.106	1.5
924.638	-1.5
925.17	1.5
925.701	-0.5
926.233	-2.5
926.765	0.5
927.296	0.5
927.828	-2.5
928.359	-1.5
928.89	-1.5
929.422	-2.5
929.953	-1.5
930.484	-1.5
931.015	-1.5
931.546	-0.5
932.077	-2.5
932.608	-0.5
933.138	-1.5
933.669	-4.5
934.2	-0.5
934.73	-1.5
935.261	-3.5
