Data from LOOPyPMA-1_QEP046991__19__18-11-28-758.txt Node

Date: Sun May 11 18:11:28 CEST 2025
User: superuser
Spectrometer: QEP04699
Trigger mode: 4
Integration Time (sec): 1.000000E-1
Scans to average: 1
Electric dark correction enabled: true
Nonlinearity correction enabled: false
Boxcar width: 0
XAxis mode: Wavelengths
Number of Pixels in Spectrum: 1044
>>>>>Begin Spectral Data<<<<<
347.57	11.25
348.165	1.25
348.76	-2.75
349.355	-3.75
349.95	2.25
350.545	-0.75
351.14	1.25
351.735	-0.75
352.33	-0.75
352.924	4.25
353.519	1.25
354.114	2.25
354.708	1.25
355.303	0.25
355.897	1.25
356.491	1.25
357.086	4.25
357.68	-2.75
358.274	1.25
358.868	-0.75
359.462	2.25
360.056	3.25
360.65	0.25
361.244	0.25
361.838	-0.75
362.431	2.25
363.025	0.25
363.619	2.25
364.212	-0.75
364.806	3.25
365.399	-0.75
365.993	3.25
366.586	-0.75
367.179	-0.75
367.772	1.25
368.366	-0.75
368.959	-0.75
369.552	3.25
370.145	4.25
370.738	0.25
371.331	0.25
371.923	1.25
372.516	2.25
373.109	3.25
373.701	2.25
374.294	0.25
374.887	-0.75
375.479	1.25
376.071	4.25
376.664	0.25
377.256	0.25
377.848	0.25
378.44	2.25
379.033	-0.75
379.625	1.25
380.217	2.25
380.808	2.25
381.4	0.25
381.992	1.25
382.584	4.25
383.176	3.25
383.767	3.25
384.359	1.25
384.95	1.25
385.542	1.25
386.133	0.25
386.725	1.25
387.316	1.25
387.907	2.25
388.498	3.25
389.089	3.25
389.68	5.25
390.271	2.25
390.862	3.25
391.453	1.25
392.044	4.25
392.635	3.25
393.225	4.25
393.816	4.25
394.407	4.25
394.997	1.25
395.588	-2.75
396.178	4.25
396.768	3.25
397.359	1.25
397.949	2.25
398.539	-1.75
399.129	1.25
399.719	6.25
400.309	1.25
400.899	0.25
401.489	2.25
402.079	4.25
402.668	1.25
403.258	4.25
403.848	0.25
404.437	4.25
405.027	0.25
405.616	5.25
406.206	5.25
406.795	3.25
407.384	6.25
407.973	4.25
408.563	5.25
409.152	6.25
409.741	5.25
410.33	2.25
410.919	6.25
411.508	3.25
412.096	4.25
412.685	7.25
413.274	5.25
413.862	7.25
414.451	8.25
415.039	7.25
415.628	7.25
416.216	7.25
416.805	5.25
417.393	9.25
417.981	10.25
418.569	8.25
419.157	14.25
419.745	13.25
420.333	13.25
420.921	13.25
421.509	16.25
422.097	19.25
422.685	16.25
423.272	20.25
423.86	17.25
424.447	21.25
425.035	22.25
425.622	26.25
426.21	23.25
426.797	25.25
427.384	38.25
427.972	30.25
428.559	34.25
429.146	44.25
429.733	42.25
430.32	39.25
430.907	45.25
431.494	51.25
432.08	54.25
432.667	57.25
433.254	65.25
433.84	71.25
434.427	70.25
435.013	83.25
435.6	83.25
436.186	88.25
436.772	101.25
437.359	100.25
437.945	125.25
438.531	129.25
439.117	136.25
439.703	149.25
440.289	162.25
440.875	172.25
441.461	185.25
442.047	199.25
442.632	211.25
443.218	234.25
443.804	235.25
444.389	275.25
444.975	270.25
445.56	301.25
446.145	332.25
446.731	345.25
447.316	364.25
447.901	410.25
448.486	430.25
449.071	455.25
449.656	492.25
450.241	516.25
450.826	567.25
451.411	610.25
451.996	670.25
452.58	701.25
453.165	753.25
453.75	820.25
454.334	878.25
454.919	955.25
455.503	1020.25
456.087	1095.25
456.672	1179.25
457.256	1276.25
457.84	1377.25
458.424	1467.25
459.008	1554.25
459.592	1649.25
460.176	1726.25
460.76	1843.25
461.344	1927.25
461.927	1996.25
462.511	2067.25
463.095	2135.25
463.678	2193.25
464.262	2196.25
464.845	2213.25
465.429	2223.25
466.012	2215.25
466.595	2169.25
467.178	2149.25
467.762	2040.25
468.345	1963.25
468.928	1880.25
469.511	1805.25
470.094	1705.25
470.676	1599.25
471.259	1487.25
471.842	1421.25
472.425	1287.25
473.007	1219.25
473.59	1144.25
474.172	1064.25
474.755	1012.25
475.337	922.25
475.919	853.25
476.502	804.25
477.084	787.25
477.666	720.25
478.248	696.25
478.83	658.25
479.412	622.25
479.994	578.25
480.576	555.25
481.157	534.25
481.739	518.25
482.321	491.25
482.902	478.25
483.484	446.25
484.065	413.25
484.647	385.25
485.228	359.25
485.809	345.25
486.391	333.25
486.972	301.25
487.553	262.25
488.134	255.25
488.715	240.25
489.296	230.25
489.877	212.25
490.458	201.25
491.038	196.25
491.619	178.25
492.2	173.25
492.78	163.25
493.361	149.25
493.941	150.25
494.522	136.25
495.102	135.25
495.682	122.25
496.262	129.25
496.843	118.25
497.423	118.25
498.003	102.25
498.583	115.25
499.163	108.25
499.742	104.25
500.322	97.25
500.902	102.25
501.482	103.25
502.061	93.25
502.641	87.25
503.22	88.25
503.8	88.25
504.379	87.25
504.958	85.25
505.538	85.25
506.117	73.25
506.696	83.25
507.275	78.25
507.854	87.25
508.433	79.25
509.012	75.25
509.591	86.25
510.169	77.25
510.748	86.25
511.327	85.25
511.905	91.25
512.484	92.25
513.062	101.25
513.641	94.25
514.219	113.25
514.797	111.25
515.375	119.25
515.954	121.25
516.532	126.25
517.11	132.25
517.688	144.25
518.266	163.25
518.843	166.25
519.421	172.25
519.999	181.25
520.577	198.25
521.154	204.25
521.732	209.25
522.309	210.25
522.887	217.25
523.464	245.25
524.041	240.25
524.619	252.25
525.196	254.25
525.773	266.25
526.35	273.25
526.927	277.25
527.504	301.25
528.081	296.25
528.658	288.25
529.235	287.25
529.811	308.25
530.388	305.25
530.964	308.25
531.541	313.25
532.117	321.25
532.694	318.25
533.27	309.25
533.846	307.25
534.423	312.25
534.999	313.25
535.575	310.25
536.151	316.25
536.727	316.25
537.303	311.25
537.879	300.25
538.455	291.25
539.03	296.25
539.606	303.25
540.182	286.25
540.757	300.25
541.333	297.25
541.908	284.25
542.483	291.25
543.059	294.25
543.634	288.25
544.209	276.25
544.784	280.25
545.359	273.25
545.934	281.25
546.509	276.25
547.084	281.25
547.659	274.25
548.234	266.25
548.808	258.25
549.383	266.25
549.958	257.25
550.532	247.25
551.107	249.25
551.681	250.25
552.255	249.25
552.83	256.25
553.404	257.25
553.978	261.25
554.552	255.25
555.126	248.25
555.7	251.25
556.274	260.25
556.848	255.25
557.422	260.25
557.995	254.25
558.569	253.25
559.143	256.25
559.716	263.25
560.29	268.25
560.863	260.25
561.437	282.25
562.01	289.25
562.583	278.25
563.156	287.25
563.729	291.25
564.302	289.25
564.875	301.25
565.448	292.25
566.021	298.25
566.594	287.25
567.167	310.25
567.74	306.25
568.312	326.25
568.885	315.25
569.457	321.25
570.03	319.25
570.602	320.25
571.174	332.25
571.747	323.25
572.319	315.25
572.891	327.25
573.463	329.25
574.035	329.25
574.607	332.25
575.179	322.25
575.751	318.25
576.323	318.25
576.894	322.25
577.466	326.25
578.038	317.25
578.609	321.25
579.181	320.25
579.752	327.25
580.323	334.25
580.895	317.25
581.466	330.25
582.037	323.25
582.608	325.25
583.179	320.25
583.75	322.25
584.321	325.25
584.892	339.25
585.463	322.25
586.033	330.25
586.604	338.25
587.175	334.25
587.745	339.25
588.316	337.25
588.886	336.25
589.457	338.25
590.027	340.25
590.597	330.25
591.167	336.25
591.737	336.25
592.308	345.25
592.878	346.25
593.447	333.25
594.017	341.25
594.587	332.25
595.157	333.25
595.727	330.25
596.296	323.25
596.866	317.25
597.435	327.25
598.005	316.25
598.574	309.25
599.143	307.25
599.713	305.25
600.282	315.25
600.851	304.25
601.42	307.25
601.989	298.25
602.558	290.25
603.127	313.25
603.696	297.25
604.265	299.25
604.833	309.25
605.402	311.25
605.971	300.25
606.539	289.25
607.108	304.25
607.676	291.25
608.244	293.25
608.813	299.25
609.381	299.25
609.949	283.25
610.517	296.25
611.085	289.25
611.653	282.25
612.221	285.25
612.789	289.25
613.357	298.25
613.924	298.25
614.492	283.25
615.06	284.25
615.627	286.25
616.195	287.25
616.762	282.25
617.329	282.25
617.897	295.25
618.464	291.25
619.031	264.25
619.598	281.25
620.165	279.25
620.732	278.25
621.299	278.25
621.866	269.25
622.433	267.25
623	274.25
623.566	268.25
624.133	273.25
624.7	270.25
625.266	255.25
625.832	280.25
626.399	261.25
626.965	268.25
627.531	267.25
628.098	279.25
628.664	264.25
629.23	270.25
629.796	248.25
630.362	254.25
630.928	257.25
631.493	251.25
632.059	246.25
632.625	255.25
633.19	252.25
633.756	259.25
634.322	250.25
634.887	247.25
635.452	236.25
636.018	236.25
636.583	245.25
637.148	235.25
637.713	236.25
638.278	236.25
638.843	225.25
639.408	233.25
639.973	228.25
640.538	214.25
641.103	231.25
641.667	222.25
642.232	217.25
642.797	216.25
643.361	217.25
643.926	210.25
644.49	229.25
645.054	217.25
645.619	221.25
646.183	219.25
646.747	221.25
647.311	208.25
647.875	210.25
648.439	212.25
649.003	196.25
649.567	200.25
650.131	203.25
650.694	198.25
651.258	191.25
651.822	192.25
652.385	190.25
652.949	191.25
653.512	194.25
654.075	194.25
654.639	185.25
655.202	183.25
655.765	175.25
656.328	183.25
656.891	184.25
657.454	174.25
658.017	176.25
658.58	170.25
659.143	175.25
659.705	180.25
660.268	177.25
660.83	169.25
661.393	166.25
661.955	169.25
662.518	155.25
663.08	169.25
663.643	160.25
664.205	158.25
664.767	149.25
665.329	159.25
665.891	150.25
666.453	144.25
667.015	154.25
667.577	141.25
668.139	143.25
668.7	152.25
669.262	147.25
669.824	146.25
670.385	145.25
670.947	143.25
671.508	137.25
672.069	148.25
672.631	143.25
673.192	131.25
673.753	135.25
674.314	137.25
674.875	135.25
675.436	129.25
675.997	124.25
676.558	124.25
677.119	123.25
677.679	130.25
678.24	135.25
678.801	136.25
679.361	132.25
679.922	135.25
680.482	123.25
681.042	131.25
681.603	127.25
682.163	122.25
682.723	112.25
683.283	125.25
683.843	125.25
684.403	117.25
684.963	122.25
685.523	113.25
686.083	119.25
686.642	108.25
687.202	115.25
687.762	115.25
688.321	105.25
688.881	106.25
689.44	102.25
690	105.25
690.559	101.25
691.118	111.25
691.677	101.25
692.236	101.25
692.795	99.25
693.354	96.25
693.913	98.25
694.472	92.25
695.031	95.25
695.59	92.25
696.148	97.25
696.707	96.25
697.265	92.25
697.824	89.25
698.382	93.25
698.941	84.25
699.499	82.25
700.057	84.25
700.615	87.25
701.173	82.25
701.731	73.25
702.289	79.25
702.847	75.25
703.405	84.25
703.963	72.25
704.521	76.25
705.078	70.25
705.636	74.25
706.194	73.25
706.751	71.25
707.308	72.25
707.866	77.25
708.423	75.25
708.98	69.25
709.537	67.25
710.095	70.25
710.652	64.25
711.209	68.25
711.765	67.25
712.322	64.25
712.879	62.25
713.436	65.25
713.992	63.25
714.549	62.25
715.106	68.25
715.662	54.25
716.218	58.25
716.775	60.25
717.331	57.25
717.887	57.25
718.443	58.25
719	53.25
719.556	54.25
720.112	54.25
720.667	49.25
721.223	48.25
721.779	54.25
722.335	51.25
722.89	43.25
723.446	54.25
724.002	53.25
724.557	51.25
725.112	37.25
725.668	51.25
726.223	41.25
726.778	42.25
727.333	43.25
727.888	50.25
728.443	43.25
728.998	40.25
729.553	38.25
730.108	43.25
730.663	44.25
731.218	43.25
731.772	36.25
732.327	43.25
732.881	37.25
733.436	36.25
733.99	37.25
734.545	36.25
735.099	37.25
735.653	34.25
736.207	34.25
736.761	35.25
737.315	39.25
737.869	36.25
738.423	40.25
738.977	35.25
739.531	35.25
740.084	35.25
740.638	30.25
741.192	30.25
741.745	29.25
742.299	32.25
742.852	32.25
743.405	35.25
743.959	29.25
744.512	32.25
745.065	31.25
745.618	34.25
746.171	29.25
746.724	28.25
747.277	34.25
747.83	26.25
748.382	33.25
748.935	27.25
749.488	29.25
750.04	25.25
750.593	23.25
751.145	27.25
751.698	26.25
752.25	27.25
752.802	30.25
753.354	19.25
753.906	24.25
754.458	27.25
755.01	27.25
755.562	18.25
756.114	22.25
756.666	28.25
757.218	26.25
757.769	22.25
758.321	22.25
758.873	24.25
759.424	27.25
759.975	17.25
760.527	21.25
761.078	23.25
761.629	20.25
762.181	19.25
762.732	22.25
763.283	18.25
763.834	15.25
764.385	15.25
764.935	16.25
765.486	14.25
766.037	19.25
766.588	15.25
767.138	15.25
767.689	17.25
768.239	13.25
768.79	16.25
769.34	18.25
769.89	20.25
770.44	20.25
770.991	18.25
771.541	16.25
772.091	13.25
772.641	22.25
773.191	19.25
773.74	14.25
774.29	16.25
774.84	14.25
775.39	16.25
775.939	14.25
776.489	14.25
777.038	17.25
777.588	12.25
778.137	13.25
778.686	16.25
779.235	16.25
779.784	15.25
780.334	13.25
780.883	12.25
781.431	13.25
781.98	12.25
782.529	14.25
783.078	12.25
783.627	13.25
784.175	12.25
784.724	12.25
785.272	15.25
785.821	11.25
786.369	16.25
786.917	9.25
787.466	15.25
788.014	12.25
788.562	16.25
789.11	9.25
789.658	12.25
790.206	14.25
790.754	7.25
791.302	13.25
791.849	10.25
792.397	12.25
792.945	16.25
793.492	12.25
794.04	14.25
794.587	14.25
795.134	14.25
795.682	9.25
796.229	7.25
796.776	8.25
797.323	10.25
797.87	13.25
798.417	10.25
798.964	3.25
799.511	8.25
800.058	8.25
800.604	4.25
801.151	3.25
801.698	8.25
802.244	13.25
802.791	9.25
803.337	12.25
803.883	13.25
804.43	9.25
804.976	5.25
805.522	7.25
806.068	6.25
806.614	5.25
807.16	6.25
807.706	3.25
808.252	9.25
808.797	7.25
809.343	9.25
809.889	5.25
810.434	4.25
810.98	5.25
811.525	3.25
812.071	4.25
812.616	8.25
813.161	5.25
813.706	10.25
814.252	9.25
814.797	6.25
815.342	8.25
815.886	3.25
816.431	5.25
816.976	7.25
817.521	8.25
818.066	7.25
818.61	5.25
819.155	7.25
819.699	7.25
820.244	7.25
820.788	2.25
821.332	4.25
821.876	7.25
822.421	3.25
822.965	3.25
823.509	3.25
824.053	5.25
824.597	2.25
825.14	5.25
825.684	4.25
826.228	8.25
826.771	2.25
827.315	5.25
827.859	6.25
828.402	3.25
828.945	2.25
829.489	3.25
830.032	3.25
830.575	2.25
831.118	5.25
831.661	4.25
832.204	2.25
832.747	9.25
833.29	5.25
833.833	3.25
834.376	3.25
834.918	5.25
835.461	4.25
836.004	4.25
836.546	2.25
837.088	7.25
837.631	5.25
838.173	2.25
838.715	3.25
839.257	4.25
839.8	3.25
840.342	2.25
840.884	2.25
841.425	4.25
841.967	4.25
842.509	7.25
843.051	5.25
843.592	4.25
844.134	2.25
844.676	2.25
845.217	5.25
845.758	0.25
846.3	5.25
846.841	1.25
847.382	2.25
847.923	2.25
848.464	-1.75
849.005	3.25
849.546	4.25
850.087	5.25
850.628	1.25
851.169	3.25
851.709	-1.75
852.25	1.25
852.791	4.25
853.331	4.25
853.871	5.25
854.412	6.25
854.952	-1.75
855.492	3.25
856.033	0.25
856.573	2.25
857.113	3.25
857.653	-1.75
858.193	-0.75
858.732	-1.75
859.272	2.25
859.812	4.25
860.352	2.25
860.891	1.25
861.431	1.25
861.97	3.25
862.509	1.25
863.049	0.25
863.588	1.25
864.127	-0.75
864.666	2.25
865.205	6.25
865.744	6.25
866.283	8.25
866.822	-2.75
867.361	2.25
867.9	2.25
868.438	2.25
868.977	-2.75
869.516	1.25
870.054	-2.75
870.593	3.25
871.131	3.25
871.669	2.25
872.207	3.25
872.746	0.25
873.284	2.25
873.822	5.25
874.36	5.25
874.898	0.25
875.435	5.25
875.973	2.25
876.511	1.25
877.048	3.25
877.586	1.25
878.124	5.25
878.661	-0.75
879.198	1.25
879.736	1.25
880.273	1.25
880.81	3.25
881.347	-0.75
881.884	3.25
882.421	-0.75
882.958	1.25
883.495	0.25
884.032	1.25
884.569	-1.75
885.105	1.25
885.642	-2.75
886.178	-1.75
886.715	1.25
887.251	6.25
887.788	-0.75
888.324	-1.75
888.86	1.25
889.396	5.25
889.932	0.25
890.468	0.25
891.004	4.25
891.54	-0.75
892.076	1.25
892.612	0.25
893.147	3.25
893.683	2.25
894.219	0.25
894.754	3.25
895.29	2.25
895.825	3.25
896.36	0.25
896.896	0.25
897.431	5.25
897.966	-0.75
898.501	1.25
899.036	-0.75
899.571	0.25
900.106	1.25
900.64	-0.75
901.175	1.25
901.71	0.25
902.244	1.25
902.779	0.25
903.313	1.25
903.848	-0.75
904.382	-0.75
904.916	5.25
905.45	0.25
905.985	2.25
906.519	-2.75
907.053	2.25
907.587	1.25
908.12	-4.75
908.654	-2.75
909.188	-1.75
909.722	5.25
910.255	-0.75
910.789	1.25
911.322	-0.75
911.856	3.25
912.389	4.25
912.922	-1.75
913.456	0.25
913.989	4.25
914.522	0.25
915.055	2.25
915.588	-0.75
916.121	-1.75
916.653	0.25
917.186	1.25
917.719	1.25
918.252	0.25
918.784	1.25
919.317	-0.75
919.849	3.25
920.381	-3.75
920.914	-0.75
921.446	0.25
921.978	1.25
922.51	1.25
923.042	-0.75
923.574	-1.75
924.106	5.25
924.638	1.25
925.17	1.25
925.701	-0.75
926.233	-0.75
926.765	0.25
927.296	2.25
927.828	-3.75
928.359	2.25
928.89	-0.75
929.422	2.25
929.953	2.25
930.484	3.25
931.015	-0.75
931.546	-0.75
932.077	0.25
932.608	-1.75
933.138	2.25
933.669	-2.75
934.2	-3.75
934.73	0.25
935.261	0.25
