Data from LOOPyPMA-1_QEP046991__48__18-11-57-758.txt Node

Date: Sun May 11 18:11:57 CEST 2025
User: superuser
Spectrometer: QEP04699
Trigger mode: 4
Integration Time (sec): 1.000000E-1
Scans to average: 1
Electric dark correction enabled: true
Nonlinearity correction enabled: false
Boxcar width: 0
XAxis mode: Wavelengths
Number of Pixels in Spectrum: 1044
>>>>>Begin Spectral Data<<<<<
347.57	13
348.165	0
348.76	0
349.355	-3
349.95	-1
350.545	-2
351.14	-5
351.735	-4
352.33	0
352.924	1
353.519	4
354.114	1
354.708	-3
355.303	1
355.897	-2
356.491	-9
357.086	-1
357.68	-1
358.274	0
358.868	-1
359.462	4
360.056	0
360.65	-2
361.244	3
361.838	-2
362.431	-1
363.025	4
363.619	2
364.212	0
364.806	0
365.399	-1
365.993	-1
366.586	0
367.179	0
367.772	1
368.366	1
368.959	-4
369.552	-1
370.145	-3
370.738	-5
371.331	3
371.923	2
372.516	0
373.109	-2
373.701	3
374.294	3
374.887	2
375.479	-4
376.071	-1
376.664	0
377.256	-1
377.848	-3
378.44	3
379.033	-3
379.625	0
380.217	-2
380.808	2
381.4	-1
381.992	2
382.584	-1
383.176	-3
383.767	2
384.359	1
384.95	-2
385.542	2
386.133	1
386.725	1
387.316	0
387.907	-1
388.498	0
389.089	-1
389.68	2
390.271	2
390.862	2
391.453	-1
392.044	-1
392.635	0
393.225	1
393.816	1
394.407	3
394.997	1
395.588	0
396.178	-1
396.768	2
397.359	2
397.949	2
398.539	1
399.129	-1
399.719	4
400.309	1
400.899	1
401.489	5
402.079	-2
402.668	2
403.258	2
403.848	4
404.437	4
405.027	3
405.616	2
406.206	3
406.795	2
407.384	2
407.973	0
408.563	3
409.152	3
409.741	4
410.33	0
410.919	4
411.508	1
412.096	5
412.685	3
413.274	7
413.862	4
414.451	5
415.039	8
415.628	6
416.216	7
416.805	10
417.393	7
417.981	9
418.569	12
419.157	8
419.745	14
420.333	12
420.921	8
421.509	11
422.097	15
422.685	16
423.272	20
423.86	23
424.447	24
425.035	24
425.622	25
426.21	22
426.797	29
427.384	34
427.972	29
428.559	34
429.146	37
429.733	31
430.32	40
430.907	49
431.494	53
432.08	53
432.667	55
433.254	70
433.84	70
434.427	74
435.013	75
435.6	85
436.186	90
436.772	106
437.359	104
437.945	115
438.531	124
439.117	133
439.703	138
440.289	150
440.875	176
441.461	183
442.047	205
442.632	214
443.218	237
443.804	253
444.389	261
444.975	289
445.56	318
446.145	338
446.731	350
447.316	383
447.901	427
448.486	438
449.071	471
449.656	496
450.241	549
450.826	574
451.411	639
451.996	673
452.58	718
453.165	785
453.75	833
454.334	896
454.919	978
455.503	1068
456.087	1129
456.672	1228
457.256	1328
457.84	1386
458.424	1517
459.008	1613
459.592	1701
460.176	1808
460.76	1916
461.344	1983
461.927	2091
462.511	2202
463.095	2239
463.678	2264
464.262	2295
464.845	2316
465.429	2313
466.012	2292
466.595	2280
467.178	2223
467.762	2150
468.345	2070
468.928	1945
469.511	1884
470.094	1762
470.676	1658
471.259	1593
471.842	1476
472.425	1374
473.007	1320
473.59	1227
474.172	1120
474.755	1060
475.337	972
475.919	926
476.502	867
477.084	827
477.666	777
478.248	727
478.83	687
479.412	679
479.994	640
480.576	607
481.157	567
481.739	541
482.321	513
482.902	512
483.484	468
484.065	454
484.647	420
485.228	401
485.809	374
486.391	350
486.972	331
487.553	310
488.134	286
488.715	267
489.296	247
489.877	226
490.458	223
491.038	213
491.619	194
492.2	174
492.78	178
493.361	169
493.941	154
494.522	139
495.102	139
495.682	137
496.262	137
496.843	123
497.423	116
498.003	117
498.583	117
499.163	116
499.742	108
500.322	107
500.902	97
501.482	93
502.061	98
502.641	101
503.22	93
503.8	85
504.379	84
504.958	86
505.538	88
506.117	77
506.696	81
507.275	85
507.854	79
508.433	82
509.012	75
509.591	78
510.169	73
510.748	77
511.327	79
511.905	90
512.484	82
513.062	93
513.641	93
514.219	102
514.797	103
515.375	109
515.954	121
516.532	118
517.11	124
517.688	127
518.266	144
518.843	149
519.421	150
519.999	154
520.577	174
521.154	191
521.732	184
522.309	192
522.887	208
523.464	215
524.041	227
524.619	221
525.196	235
525.773	240
526.35	242
526.927	263
527.504	271
528.081	270
528.658	264
529.235	275
529.811	274
530.388	280
530.964	281
531.541	280
532.117	279
532.694	272
533.27	286
533.846	294
534.423	278
534.999	272
535.575	272
536.151	276
536.727	271
537.303	273
537.879	278
538.455	281
539.03	267
539.606	273
540.182	281
540.757	266
541.333	264
541.908	262
542.483	264
543.059	249
543.634	256
544.209	238
544.784	244
545.359	245
545.934	237
546.509	244
547.084	234
547.659	236
548.234	234
548.808	231
549.383	248
549.958	231
550.532	240
551.107	224
551.681	222
552.255	236
552.83	226
553.404	218
553.978	222
554.552	214
555.126	219
555.7	225
556.274	215
556.848	222
557.422	232
557.995	226
558.569	226
559.143	233
559.716	234
560.29	236
560.863	248
561.437	239
562.01	257
562.583	243
563.156	246
563.729	256
564.302	256
564.875	264
565.448	259
566.021	260
566.594	259
567.167	270
567.74	279
568.312	270
568.885	284
569.457	276
570.03	283
570.602	281
571.174	287
571.747	275
572.319	276
572.891	282
573.463	285
574.035	285
574.607	295
575.179	289
575.751	272
576.323	282
576.894	280
577.466	281
578.038	285
578.609	283
579.181	283
579.752	271
580.323	288
580.895	279
581.466	292
582.037	286
582.608	291
583.179	288
583.75	291
584.321	285
584.892	285
585.463	283
586.033	298
586.604	296
587.175	294
587.745	298
588.316	282
588.886	304
589.457	298
590.027	289
590.597	304
591.167	301
591.737	291
592.308	294
592.878	303
593.447	288
594.017	297
594.587	289
595.157	283
595.727	282
596.296	279
596.866	279
597.435	282
598.005	280
598.574	285
599.143	280
599.713	269
600.282	280
600.851	274
601.42	264
601.989	265
602.558	256
603.127	260
603.696	261
604.265	257
604.833	257
605.402	262
605.971	259
606.539	257
607.108	258
607.676	258
608.244	259
608.813	257
609.381	244
609.949	249
610.517	265
611.085	264
611.653	263
612.221	252
612.789	261
613.357	252
613.924	255
614.492	252
615.06	248
615.627	261
616.195	240
616.762	235
617.329	247
617.897	240
618.464	236
619.031	246
619.598	244
620.165	250
620.732	243
621.299	250
621.866	240
622.433	238
623	242
623.566	241
624.133	240
624.7	235
625.266	235
625.832	240
626.399	246
626.965	220
627.531	238
628.098	234
628.664	232
629.23	222
629.796	228
630.362	218
630.928	221
631.493	216
632.059	220
632.625	216
633.19	220
633.756	209
634.322	219
634.887	222
635.452	209
636.018	218
636.583	201
637.148	206
637.713	210
638.278	206
638.843	212
639.408	202
639.973	193
640.538	207
641.103	199
641.667	198
642.232	194
642.797	203
643.361	193
643.926	191
644.49	187
645.054	183
645.619	187
646.183	188
646.747	183
647.311	178
647.875	183
648.439	187
649.003	167
649.567	183
650.131	179
650.694	173
651.258	168
651.822	165
652.385	159
652.949	163
653.512	159
654.075	164
654.639	165
655.202	164
655.765	161
656.328	153
656.891	154
657.454	156
658.017	157
658.58	148
659.143	150
659.705	148
660.268	148
660.83	149
661.393	152
661.955	138
662.518	145
663.08	143
663.643	133
664.205	139
664.767	138
665.329	137
665.891	134
666.453	140
667.015	137
667.577	136
668.139	125
668.7	137
669.262	130
669.824	129
670.385	124
670.947	118
671.508	123
672.069	122
672.631	116
673.192	121
673.753	124
674.314	121
674.875	115
675.436	123
675.997	118
676.558	113
677.119	119
677.679	119
678.24	109
678.801	118
679.361	112
679.922	111
680.482	109
681.042	110
681.603	115
682.163	108
682.723	110
683.283	110
683.843	102
684.403	108
684.963	100
685.523	99
686.083	95
686.642	99
687.202	103
687.762	87
688.321	99
688.881	94
689.44	95
690	93
690.559	86
691.118	92
691.677	90
692.236	88
692.795	91
693.354	90
693.913	86
694.472	86
695.031	80
695.59	76
696.148	75
696.707	76
697.265	71
697.824	78
698.382	75
698.941	74
699.499	75
700.057	74
700.615	72
701.173	71
701.731	76
702.289	67
702.847	66
703.405	66
703.963	70
704.521	74
705.078	70
705.636	60
706.194	63
706.751	67
707.308	63
707.866	61
708.423	65
708.98	61
709.537	55
710.095	63
710.652	53
711.209	59
711.765	51
712.322	57
712.879	53
713.436	57
713.992	56
714.549	50
715.106	48
715.662	54
716.218	56
716.775	50
717.331	54
717.887	41
718.443	47
719	49
719.556	51
720.112	38
720.667	48
721.223	38
721.779	37
722.335	38
722.89	50
723.446	41
724.002	45
724.557	43
725.112	39
725.668	43
726.223	45
726.778	40
727.333	38
727.888	33
728.443	38
728.998	38
729.553	38
730.108	41
730.663	36
731.218	36
731.772	37
732.327	30
732.881	30
733.436	34
733.99	27
734.545	35
735.099	35
735.653	32
736.207	36
736.761	26
737.315	28
737.869	32
738.423	30
738.977	29
739.531	33
740.084	27
740.638	32
741.192	24
741.745	27
742.299	29
742.852	26
743.405	27
743.959	32
744.512	30
745.065	24
745.618	27
746.171	21
746.724	24
747.277	24
747.83	25
748.382	24
748.935	17
749.488	24
750.04	20
750.593	23
751.145	21
751.698	22
752.25	26
752.802	20
753.354	19
753.906	27
754.458	21
755.01	22
755.562	20
756.114	14
756.666	18
757.218	18
757.769	19
758.321	17
758.873	19
759.424	20
759.975	21
760.527	23
761.078	14
761.629	18
762.181	15
762.732	18
763.283	13
763.834	14
764.385	15
764.935	15
765.486	18
766.037	11
766.588	17
767.138	11
767.689	15
768.239	12
768.79	16
769.34	12
769.89	14
770.44	11
770.991	11
771.541	19
772.091	11
772.641	15
773.191	8
773.74	15
774.29	13
774.84	14
775.39	18
775.939	13
776.489	20
777.038	11
777.588	12
778.137	10
778.686	9
779.235	15
779.784	10
780.334	14
780.883	13
781.431	12
781.98	13
782.529	11
783.078	13
783.627	12
784.175	16
784.724	8
785.272	16
785.821	8
786.369	14
786.917	12
787.466	8
788.014	10
788.562	11
789.11	9
789.658	8
790.206	10
790.754	6
791.302	9
791.849	12
792.397	11
792.945	12
793.492	6
794.04	7
794.587	9
795.134	12
795.682	9
796.229	8
796.776	10
797.323	6
797.87	7
798.417	6
798.964	13
799.511	7
800.058	9
800.604	8
801.151	4
801.698	3
802.244	8
802.791	5
803.337	9
803.883	7
804.43	1
804.976	2
805.522	8
806.068	6
806.614	4
807.16	5
807.706	9
808.252	7
808.797	5
809.343	7
809.889	10
810.434	5
810.98	4
811.525	3
812.071	5
812.616	5
813.161	3
813.706	5
814.252	8
814.797	4
815.342	6
815.886	1
816.431	10
816.976	2
817.521	6
818.066	4
818.61	3
819.155	3
819.699	4
820.244	3
820.788	7
821.332	2
821.876	4
822.421	-1
822.965	4
823.509	6
824.053	6
824.597	7
825.14	1
825.684	1
826.228	2
826.771	7
827.315	5
827.859	6
828.402	6
828.945	5
829.489	0
830.032	2
830.575	6
831.118	-2
831.661	3
832.204	1
832.747	6
833.29	1
833.833	5
834.376	3
834.918	4
835.461	5
836.004	4
836.546	3
837.088	5
837.631	1
838.173	5
838.715	4
839.257	8
839.8	5
840.342	2
840.884	2
841.425	3
841.967	1
842.509	3
843.051	7
843.592	2
844.134	4
844.676	5
845.217	4
845.758	0
846.3	7
846.841	2
847.382	2
847.923	1
848.464	1
849.005	5
849.546	3
850.087	-1
850.628	0
851.169	1
851.709	2
852.25	0
852.791	1
853.331	2
853.871	4
854.412	1
854.952	1
855.492	0
856.033	1
856.573	3
857.113	-4
857.653	0
858.193	0
858.732	-1
859.272	3
859.812	-2
860.352	0
860.891	0
861.431	0
861.97	-1
862.509	2
863.049	3
863.588	3
864.127	0
864.666	1
865.205	-2
865.744	2
866.283	0
866.822	1
867.361	1
867.9	-2
868.438	0
868.977	1
869.516	4
870.054	0
870.593	1
871.131	3
871.669	2
872.207	4
872.746	0
873.284	0
873.822	2
874.36	0
874.898	-2
875.435	5
875.973	-2
876.511	1
877.048	0
877.586	0
878.124	2
878.661	2
879.198	-1
879.736	-1
880.273	-1
880.81	4
881.347	1
881.884	1
882.421	-1
882.958	0
883.495	-1
884.032	5
884.569	-3
885.105	2
885.642	-2
886.178	0
886.715	-2
887.251	-4
887.788	-1
888.324	-1
888.86	1
889.396	0
889.932	0
890.468	3
891.004	1
891.54	3
892.076	0
892.612	3
893.147	-1
893.683	-4
894.219	-1
894.754	2
895.29	0
895.825	-1
896.36	-1
896.896	1
897.431	-3
897.966	0
898.501	2
899.036	1
899.571	0
900.106	2
900.64	1
901.175	0
901.71	4
902.244	4
902.779	-4
903.313	5
903.848	-2
904.382	-2
904.916	0
905.45	-3
905.985	0
906.519	-1
907.053	2
907.587	0
908.12	0
908.654	0
909.188	0
909.722	-4
910.255	-3
910.789	-1
911.322	0
911.856	1
912.389	-2
912.922	0
913.456	3
913.989	-1
914.522	3
915.055	-1
915.588	-1
916.121	-2
916.653	0
917.186	-2
917.719	-4
918.252	-4
918.784	1
919.317	2
919.849	3
920.381	0
920.914	-1
921.446	-3
921.978	0
922.51	2
923.042	4
923.574	5
924.106	0
924.638	1
925.17	1
925.701	1
926.233	-1
926.765	-1
927.296	4
927.828	-4
928.359	1
928.89	-2
929.422	3
929.953	3
930.484	3
931.015	-2
931.546	-1
932.077	-3
932.608	1
933.138	-3
933.669	-2
934.2	-5
934.73	-2
935.261	-1
