Data from LOOPyPMA-1_QEP046991__7__18-11-16-757.txt Node

Date: Sun May 11 18:11:16 CEST 2025
User: superuser
Spectrometer: QEP04699
Trigger mode: 4
Integration Time (sec): 1.000000E-1
Scans to average: 1
Electric dark correction enabled: true
Nonlinearity correction enabled: false
Boxcar width: 0
XAxis mode: Wavelengths
Number of Pixels in Spectrum: 1044
>>>>>Begin Spectral Data<<<<<
347.57	11.5
348.165	2.5
348.76	-1.5
349.355	-0.5
349.95	1.5
350.545	-1.5
351.14	3.5
351.735	0.5
352.33	3.5
352.924	0.5
353.519	3.5
354.114	-0.5
354.708	-0.5
355.303	1.5
355.897	-1.5
356.491	0.5
357.086	2.5
357.68	2.5
358.274	1.5
358.868	-2.5
359.462	1.5
360.056	3.5
360.65	0.5
361.244	0.5
361.838	1.5
362.431	3.5
363.025	3.5
363.619	-1.5
364.212	-4.5
364.806	1.5
365.399	1.5
365.993	2.5
366.586	0.5
367.179	-0.5
367.772	3.5
368.366	5.5
368.959	2.5
369.552	1.5
370.145	2.5
370.738	-0.5
371.331	-2.5
371.923	4.5
372.516	-0.5
373.109	1.5
373.701	4.5
374.294	2.5
374.887	1.5
375.479	1.5
376.071	4.5
376.664	2.5
377.256	1.5
377.848	1.5
378.44	-0.5
379.033	1.5
379.625	-0.5
380.217	-1.5
380.808	1.5
381.4	1.5
381.992	2.5
382.584	2.5
383.176	2.5
383.767	0.5
384.359	3.5
384.95	2.5
385.542	2.5
386.133	0.5
386.725	3.5
387.316	0.5
387.907	0.5
388.498	3.5
389.089	3.5
389.68	1.5
390.271	-0.5
390.862	6.5
391.453	0.5
392.044	3.5
392.635	0.5
393.225	2.5
393.816	0.5
394.407	4.5
394.997	7.5
395.588	0.5
396.178	3.5
396.768	1.5
397.359	0.5
397.949	2.5
398.539	2.5
399.129	1.5
399.719	-1.5
400.309	2.5
400.899	4.5
401.489	6.5
402.079	5.5
402.668	3.5
403.258	1.5
403.848	5.5
404.437	1.5
405.027	7.5
405.616	6.5
406.206	2.5
406.795	1.5
407.384	11.5
407.973	3.5
408.563	6.5
409.152	0.5
409.741	1.5
410.33	5.5
410.919	7.5
411.508	4.5
412.096	4.5
412.685	7.5
413.274	9.5
413.862	6.5
414.451	6.5
415.039	9.5
415.628	8.5
416.216	7.5
416.805	12.5
417.393	12.5
417.981	12.5
418.569	11.5
419.157	8.5
419.745	12.5
420.333	14.5
420.921	14.5
421.509	13.5
422.097	18.5
422.685	19.5
423.272	17.5
423.86	18.5
424.447	24.5
425.035	28.5
425.622	28.5
426.21	31.5
426.797	26.5
427.384	28.5
427.972	37.5
428.559	36.5
429.146	37.5
429.733	44.5
430.32	48.5
430.907	46.5
431.494	51.5
432.08	49.5
432.667	60.5
433.254	65.5
433.84	68.5
434.427	68.5
435.013	73.5
435.6	84.5
436.186	93.5
436.772	95.5
437.359	106.5
437.945	106.5
438.531	120.5
439.117	134.5
439.703	146.5
440.289	154.5
440.875	167.5
441.461	184.5
442.047	200.5
442.632	211.5
443.218	227.5
443.804	247.5
444.389	253.5
444.975	289.5
445.56	306.5
446.145	339.5
446.731	345.5
447.316	372.5
447.901	402.5
448.486	422.5
449.071	452.5
449.656	495.5
450.241	535.5
450.826	576.5
451.411	596.5
451.996	653.5
452.58	690.5
453.165	759.5
453.75	830.5
454.334	891.5
454.919	935.5
455.503	1023.5
456.087	1109.5
456.672	1172.5
457.256	1236.5
457.84	1353.5
458.424	1450.5
459.008	1585.5
459.592	1637.5
460.176	1763.5
460.76	1851.5
461.344	1938.5
461.927	2019.5
462.511	2076.5
463.095	2116.5
463.678	2171.5
464.262	2231.5
464.845	2207.5
465.429	2247.5
466.012	2192.5
466.595	2120.5
467.178	2095.5
467.762	2030.5
468.345	1991.5
468.928	1891.5
469.511	1798.5
470.094	1703.5
470.676	1610.5
471.259	1521.5
471.842	1398.5
472.425	1303.5
473.007	1228.5
473.59	1120.5
474.172	1074.5
474.755	991.5
475.337	934.5
475.919	883.5
476.502	826.5
477.084	758.5
477.666	732.5
478.248	694.5
478.83	651.5
479.412	643.5
479.994	590.5
480.576	556.5
481.157	547.5
481.739	508.5
482.321	495.5
482.902	459.5
483.484	441.5
484.065	412.5
484.647	398.5
485.228	355.5
485.809	348.5
486.391	326.5
486.972	295.5
487.553	290.5
488.134	261.5
488.715	249.5
489.296	239.5
489.877	220.5
490.458	208.5
491.038	199.5
491.619	176.5
492.2	172.5
492.78	157.5
493.361	147.5
493.941	148.5
494.522	140.5
495.102	133.5
495.682	125.5
496.262	119.5
496.843	121.5
497.423	115.5
498.003	117.5
498.583	111.5
499.163	111.5
499.742	109.5
500.322	107.5
500.902	89.5
501.482	100.5
502.061	95.5
502.641	83.5
503.22	97.5
503.8	86.5
504.379	84.5
504.958	90.5
505.538	86.5
506.117	76.5
506.696	77.5
507.275	77.5
507.854	80.5
508.433	78.5
509.012	77.5
509.591	82.5
510.169	80.5
510.748	84.5
511.327	88.5
511.905	93.5
512.484	100.5
513.062	92.5
513.641	92.5
514.219	108.5
514.797	112.5
515.375	120.5
515.954	124.5
516.532	136.5
517.11	140.5
517.688	144.5
518.266	148.5
518.843	161.5
519.421	175.5
519.999	179.5
520.577	184.5
521.154	206.5
521.732	202.5
522.309	215.5
522.887	229.5
523.464	231.5
524.041	241.5
524.619	260.5
525.196	265.5
525.773	268.5
526.35	279.5
526.927	281.5
527.504	289.5
528.081	285.5
528.658	288.5
529.235	294.5
529.811	307.5
530.388	308.5
530.964	306.5
531.541	317.5
532.117	322.5
532.694	308.5
533.27	315.5
533.846	311.5
534.423	307.5
534.999	307.5
535.575	320.5
536.151	302.5
536.727	315.5
537.303	315.5
537.879	301.5
538.455	299.5
539.03	310.5
539.606	304.5
540.182	290.5
540.757	292.5
541.333	293.5
541.908	299.5
542.483	284.5
543.059	291.5
543.634	289.5
544.209	294.5
544.784	291.5
545.359	274.5
545.934	287.5
546.509	263.5
547.084	275.5
547.659	277.5
548.234	264.5
548.808	275.5
549.383	269.5
549.958	265.5
550.532	250.5
551.107	267.5
551.681	246.5
552.255	261.5
552.83	255.5
553.404	249.5
553.978	249.5
554.552	249.5
555.126	255.5
555.7	252.5
556.274	257.5
556.848	261.5
557.422	245.5
557.995	260.5
558.569	269.5
559.143	272.5
559.716	263.5
560.29	282.5
560.863	275.5
561.437	269.5
562.01	281.5
562.583	277.5
563.156	291.5
563.729	290.5
564.302	293.5
564.875	295.5
565.448	301.5
566.021	294.5
566.594	312.5
567.167	303.5
567.74	310.5
568.312	320.5
568.885	316.5
569.457	330.5
570.03	319.5
570.602	332.5
571.174	316.5
571.747	324.5
572.319	317.5
572.891	326.5
573.463	330.5
574.035	315.5
574.607	324.5
575.179	328.5
575.751	330.5
576.323	333.5
576.894	323.5
577.466	322.5
578.038	325.5
578.609	327.5
579.181	325.5
579.752	333.5
580.323	313.5
580.895	312.5
581.466	313.5
582.037	325.5
582.608	328.5
583.179	323.5
583.75	321.5
584.321	337.5
584.892	333.5
585.463	315.5
586.033	347.5
586.604	325.5
587.175	336.5
587.745	340.5
588.316	341.5
588.886	327.5
589.457	347.5
590.027	337.5
590.597	329.5
591.167	344.5
591.737	333.5
592.308	339.5
592.878	331.5
593.447	332.5
594.017	337.5
594.587	327.5
595.157	322.5
595.727	327.5
596.296	315.5
596.866	318.5
597.435	308.5
598.005	325.5
598.574	329.5
599.143	298.5
599.713	305.5
600.282	300.5
600.851	299.5
601.42	294.5
601.989	311.5
602.558	302.5
603.127	300.5
603.696	300.5
604.265	294.5
604.833	295.5
605.402	293.5
605.971	297.5
606.539	298.5
607.108	301.5
607.676	296.5
608.244	300.5
608.813	286.5
609.381	291.5
609.949	296.5
610.517	291.5
611.085	289.5
611.653	299.5
612.221	288.5
612.789	289.5
613.357	280.5
613.924	299.5
614.492	288.5
615.06	286.5
615.627	288.5
616.195	276.5
616.762	271.5
617.329	293.5
617.897	275.5
618.464	283.5
619.031	282.5
619.598	282.5
620.165	279.5
620.732	281.5
621.299	279.5
621.866	283.5
622.433	270.5
623	269.5
623.566	273.5
624.133	269.5
624.7	280.5
625.266	264.5
625.832	271.5
626.399	261.5
626.965	272.5
627.531	257.5
628.098	264.5
628.664	257.5
629.23	269.5
629.796	251.5
630.362	254.5
630.928	261.5
631.493	255.5
632.059	251.5
632.625	256.5
633.19	252.5
633.756	255.5
634.322	255.5
634.887	246.5
635.452	246.5
636.018	246.5
636.583	242.5
637.148	244.5
637.713	238.5
638.278	237.5
638.843	239.5
639.408	238.5
639.973	241.5
640.538	228.5
641.103	223.5
641.667	220.5
642.232	231.5
642.797	218.5
643.361	226.5
643.926	213.5
644.49	211.5
645.054	221.5
645.619	212.5
646.183	206.5
646.747	202.5
647.311	214.5
647.875	203.5
648.439	199.5
649.003	199.5
649.567	197.5
650.131	195.5
650.694	201.5
651.258	197.5
651.822	196.5
652.385	192.5
652.949	188.5
653.512	192.5
654.075	181.5
654.639	186.5
655.202	187.5
655.765	188.5
656.328	189.5
656.891	182.5
657.454	172.5
658.017	179.5
658.58	168.5
659.143	175.5
659.705	171.5
660.268	172.5
660.83	166.5
661.393	170.5
661.955	165.5
662.518	175.5
663.08	164.5
663.643	156.5
664.205	157.5
664.767	163.5
665.329	155.5
665.891	148.5
666.453	159.5
667.015	156.5
667.577	159.5
668.139	154.5
668.7	149.5
669.262	141.5
669.824	147.5
670.385	151.5
670.947	142.5
671.508	147.5
672.069	138.5
672.631	141.5
673.192	123.5
673.753	130.5
674.314	134.5
674.875	139.5
675.436	132.5
675.997	134.5
676.558	126.5
677.119	133.5
677.679	128.5
678.24	123.5
678.801	126.5
679.361	123.5
679.922	130.5
680.482	127.5
681.042	127.5
681.603	121.5
682.163	129.5
682.723	131.5
683.283	127.5
683.843	122.5
684.403	121.5
684.963	113.5
685.523	121.5
686.083	119.5
686.642	112.5
687.202	118.5
687.762	119.5
688.321	112.5
688.881	109.5
689.44	100.5
690	103.5
690.559	105.5
691.118	101.5
691.677	97.5
692.236	102.5
692.795	92.5
693.354	94.5
693.913	100.5
694.472	101.5
695.031	94.5
695.59	94.5
696.148	97.5
696.707	90.5
697.265	88.5
697.824	76.5
698.382	85.5
698.941	86.5
699.499	91.5
700.057	86.5
700.615	80.5
701.173	80.5
701.731	75.5
702.289	76.5
702.847	74.5
703.405	77.5
703.963	74.5
704.521	71.5
705.078	70.5
705.636	77.5
706.194	72.5
706.751	67.5
707.308	75.5
707.866	71.5
708.423	70.5
708.98	71.5
709.537	71.5
710.095	63.5
710.652	68.5
711.209	67.5
711.765	65.5
712.322	64.5
712.879	63.5
713.436	57.5
713.992	62.5
714.549	59.5
715.106	61.5
715.662	65.5
716.218	54.5
716.775	56.5
717.331	54.5
717.887	60.5
718.443	59.5
719	48.5
719.556	58.5
720.112	49.5
720.667	57.5
721.223	52.5
721.779	52.5
722.335	49.5
722.89	49.5
723.446	47.5
724.002	48.5
724.557	45.5
725.112	45.5
725.668	45.5
726.223	43.5
726.778	49.5
727.333	43.5
727.888	40.5
728.443	43.5
728.998	48.5
729.553	44.5
730.108	45.5
730.663	37.5
731.218	43.5
731.772	44.5
732.327	40.5
732.881	41.5
733.436	40.5
733.99	44.5
734.545	37.5
735.099	39.5
735.653	41.5
736.207	37.5
736.761	35.5
737.315	37.5
737.869	37.5
738.423	36.5
738.977	39.5
739.531	34.5
740.084	36.5
740.638	37.5
741.192	36.5
741.745	31.5
742.299	30.5
742.852	27.5
743.405	33.5
743.959	30.5
744.512	35.5
745.065	31.5
745.618	28.5
746.171	31.5
746.724	27.5
747.277	31.5
747.83	27.5
748.382	26.5
748.935	31.5
749.488	30.5
750.04	25.5
750.593	31.5
751.145	21.5
751.698	26.5
752.25	25.5
752.802	26.5
753.354	30.5
753.906	24.5
754.458	25.5
755.01	24.5
755.562	24.5
756.114	21.5
756.666	23.5
757.218	24.5
757.769	25.5
758.321	20.5
758.873	21.5
759.424	20.5
759.975	22.5
760.527	24.5
761.078	21.5
761.629	24.5
762.181	23.5
762.732	20.5
763.283	20.5
763.834	22.5
764.385	18.5
764.935	19.5
765.486	18.5
766.037	15.5
766.588	21.5
767.138	17.5
767.689	22.5
768.239	14.5
768.79	13.5
769.34	15.5
769.89	15.5
770.44	16.5
770.991	20.5
771.541	18.5
772.091	12.5
772.641	17.5
773.191	16.5
773.74	17.5
774.29	12.5
774.84	16.5
775.39	16.5
775.939	18.5
776.489	14.5
777.038	19.5
777.588	12.5
778.137	10.5
778.686	11.5
779.235	16.5
779.784	14.5
780.334	15.5
780.883	9.5
781.431	15.5
781.98	16.5
782.529	12.5
783.078	13.5
783.627	15.5
784.175	18.5
784.724	17.5
785.272	14.5
785.821	18.5
786.369	9.5
786.917	11.5
787.466	12.5
788.014	13.5
788.562	14.5
789.11	10.5
789.658	12.5
790.206	13.5
790.754	17.5
791.302	10.5
791.849	15.5
792.397	10.5
792.945	13.5
793.492	12.5
794.04	10.5
794.587	7.5
795.134	13.5
795.682	8.5
796.229	11.5
796.776	8.5
797.323	11.5
797.87	8.5
798.417	9.5
798.964	12.5
799.511	13.5
800.058	9.5
800.604	9.5
801.151	8.5
801.698	10.5
802.244	9.5
802.791	5.5
803.337	10.5
803.883	7.5
804.43	5.5
804.976	11.5
805.522	6.5
806.068	10.5
806.614	8.5
807.16	5.5
807.706	4.5
808.252	7.5
808.797	9.5
809.343	7.5
809.889	4.5
810.434	10.5
810.98	5.5
811.525	11.5
812.071	5.5
812.616	6.5
813.161	7.5
813.706	7.5
814.252	6.5
814.797	4.5
815.342	5.5
815.886	5.5
816.431	3.5
816.976	8.5
817.521	7.5
818.066	5.5
818.61	7.5
819.155	7.5
819.699	5.5
820.244	3.5
820.788	7.5
821.332	2.5
821.876	3.5
822.421	-0.5
822.965	7.5
823.509	4.5
824.053	7.5
824.597	7.5
825.14	-0.5
825.684	4.5
826.228	4.5
826.771	6.5
827.315	8.5
827.859	6.5
828.402	5.5
828.945	5.5
829.489	-1.5
830.032	7.5
830.575	3.5
831.118	5.5
831.661	3.5
832.204	6.5
832.747	3.5
833.29	1.5
833.833	6.5
834.376	1.5
834.918	5.5
835.461	6.5
836.004	6.5
836.546	5.5
837.088	4.5
837.631	5.5
838.173	7.5
838.715	0.5
839.257	4.5
839.8	3.5
840.342	3.5
840.884	2.5
841.425	3.5
841.967	9.5
842.509	4.5
843.051	2.5
843.592	5.5
844.134	1.5
844.676	4.5
845.217	1.5
845.758	0.5
846.3	4.5
846.841	1.5
847.382	2.5
847.923	6.5
848.464	2.5
849.005	3.5
849.546	3.5
850.087	0.5
850.628	4.5
851.169	2.5
851.709	4.5
852.25	5.5
852.791	1.5
853.331	1.5
853.871	3.5
854.412	1.5
854.952	3.5
855.492	1.5
856.033	1.5
856.573	-0.5
857.113	4.5
857.653	3.5
858.193	5.5
858.732	-2.5
859.272	-0.5
859.812	6.5
860.352	1.5
860.891	4.5
861.431	8.5
861.97	0.5
862.509	2.5
863.049	3.5
863.588	2.5
864.127	0.5
864.666	1.5
865.205	-0.5
865.744	2.5
866.283	3.5
866.822	1.5
867.361	3.5
867.9	1.5
868.438	1.5
868.977	5.5
869.516	0.5
870.054	-0.5
870.593	-1.5
871.131	2.5
871.669	-1.5
872.207	7.5
872.746	0.5
873.284	2.5
873.822	0.5
874.36	2.5
874.898	2.5
875.435	2.5
875.973	4.5
876.511	-0.5
877.048	2.5
877.586	0.5
878.124	0.5
878.661	1.5
879.198	2.5
879.736	2.5
880.273	2.5
880.81	4.5
881.347	1.5
881.884	3.5
882.421	-0.5
882.958	2.5
883.495	0.5
884.032	1.5
884.569	0.5
885.105	1.5
885.642	3.5
886.178	4.5
886.715	-0.5
887.251	1.5
887.788	1.5
888.324	3.5
888.86	1.5
889.396	2.5
889.932	0.5
890.468	3.5
891.004	1.5
891.54	1.5
892.076	1.5
892.612	-0.5
893.147	0.5
893.683	3.5
894.219	1.5
894.754	4.5
895.29	1.5
895.825	2.5
896.36	0.5
896.896	2.5
897.431	-0.5
897.966	1.5
898.501	-1.5
899.036	-1.5
899.571	0.5
900.106	0.5
900.64	3.5
901.175	-0.5
901.71	2.5
902.244	-0.5
902.779	-2.5
903.313	-0.5
903.848	6.5
904.382	0.5
904.916	3.5
905.45	0.5
905.985	2.5
906.519	-0.5
907.053	4.5
907.587	1.5
908.12	1.5
908.654	-0.5
909.188	1.5
909.722	4.5
910.255	4.5
910.789	3.5
911.322	2.5
911.856	1.5
912.389	2.5
912.922	2.5
913.456	1.5
913.989	-0.5
914.522	3.5
915.055	3.5
915.588	2.5
916.121	1.5
916.653	1.5
917.186	0.5
917.719	-0.5
918.252	2.5
918.784	1.5
919.317	2.5
919.849	2.5
920.381	-1.5
920.914	4.5
921.446	1.5
921.978	1.5
922.51	1.5
923.042	-0.5
923.574	3.5
924.106	1.5
924.638	3.5
925.17	-0.5
925.701	3.5
926.233	-0.5
926.765	-2.5
927.296	-0.5
927.828	-4.5
928.359	0.5
928.89	2.5
929.422	3.5
929.953	0.5
930.484	2.5
931.015	1.5
931.546	3.5
932.077	2.5
932.608	0.5
933.138	-0.5
933.669	-0.5
934.2	-4.5
934.73	-0.5
935.261	-6.5
