Data from LOOPyPMA-1_QEP046991__3__18-11-12-757.txt Node

Date: Sun May 11 18:11:12 CEST 2025
User: superuser
Spectrometer: QEP04699
Trigger mode: 4
Integration Time (sec): 1.000000E-1
Scans to average: 1
Electric dark correction enabled: true
Nonlinearity correction enabled: false
Boxcar width: 0
XAxis mode: Wavelengths
Number of Pixels in Spectrum: 1044
>>>>>Begin Spectral Data<<<<<
347.57	11.25
348.165	1.25
348.76	1.25
349.355	-0.75
349.95	-2.75
350.545	-1.75
351.14	-0.75
351.735	-6.75
352.33	2.25
352.924	1.25
353.519	2.25
354.114	-0.75
354.708	-0.75
355.303	-1.75
355.897	0.25
356.491	1.25
357.086	-0.75
357.68	0.25
358.274	1.25
358.868	0.25
359.462	4.25
360.056	-0.75
360.65	1.25
361.244	1.25
361.838	1.25
362.431	1.25
363.025	-3.75
363.619	-0.75
364.212	1.25
364.806	-1.75
365.399	-1.75
365.993	-0.75
366.586	-0.75
367.179	1.25
367.772	1.25
368.366	1.25
368.959	0.25
369.552	1.25
370.145	1.25
370.738	1.25
371.331	-1.75
371.923	-1.75
372.516	1.25
373.109	-1.75
373.701	-2.75
374.294	-6.75
374.887	-0.75
375.479	-2.75
376.071	5.25
376.664	-0.75
377.256	-4.75
377.848	4.25
378.44	1.25
379.033	-0.75
379.625	-0.75
380.217	-1.75
380.808	-0.75
381.4	1.25
381.992	1.25
382.584	1.25
383.176	-0.75
383.767	-0.75
384.359	-0.75
384.95	1.25
385.542	-2.75
386.133	1.25
386.725	-1.75
387.316	0.25
387.907	-2.75
388.498	-0.75
389.089	2.25
389.68	1.25
390.271	-0.75
390.862	0.25
391.453	3.25
392.044	2.25
392.635	-0.75
393.225	4.25
393.816	3.25
394.407	6.25
394.997	-0.75
395.588	2.25
396.178	-1.75
396.768	6.25
397.359	-3.75
397.949	0.25
398.539	1.25
399.129	0.25
399.719	2.25
400.309	-1.75
400.899	6.25
401.489	0.25
402.079	2.25
402.668	-0.75
403.258	2.25
403.848	5.25
404.437	5.25
405.027	1.25
405.616	-1.75
406.206	2.25
406.795	2.25
407.384	-2.75
407.973	3.25
408.563	3.25
409.152	2.25
409.741	2.25
410.33	4.25
410.919	3.25
411.508	2.25
412.096	6.25
412.685	7.25
413.274	5.25
413.862	4.25
414.451	6.25
415.039	7.25
415.628	8.25
416.216	4.25
416.805	9.25
417.393	8.25
417.981	9.25
418.569	10.25
419.157	9.25
419.745	9.25
420.333	10.25
420.921	12.25
421.509	11.25
422.097	20.25
422.685	21.25
423.272	13.25
423.86	18.25
424.447	21.25
425.035	22.25
425.622	25.25
426.21	28.25
426.797	26.25
427.384	31.25
427.972	29.25
428.559	38.25
429.146	38.25
429.733	44.25
430.32	41.25
430.907	48.25
431.494	51.25
432.08	57.25
432.667	62.25
433.254	59.25
433.84	73.25
434.427	70.25
435.013	76.25
435.6	91.25
436.186	92.25
436.772	101.25
437.359	114.25
437.945	116.25
438.531	121.25
439.117	142.25
439.703	155.25
440.289	149.25
440.875	164.25
441.461	187.25
442.047	194.25
442.632	210.25
443.218	232.25
443.804	250.25
444.389	261.25
444.975	278.25
445.56	316.25
446.145	335.25
446.731	346.25
447.316	378.25
447.901	395.25
448.486	418.25
449.071	459.25
449.656	488.25
450.241	543.25
450.826	564.25
451.411	603.25
451.996	644.25
452.58	700.25
453.165	755.25
453.75	823.25
454.334	870.25
454.919	953.25
455.503	1017.25
456.087	1098.25
456.672	1176.25
457.256	1263.25
457.84	1384.25
458.424	1468.25
459.008	1570.25
459.592	1658.25
460.176	1721.25
460.76	1857.25
461.344	1931.25
461.927	2001.25
462.511	2067.25
463.095	2127.25
463.678	2156.25
464.262	2221.25
464.845	2204.25
465.429	2241.25
466.012	2185.25
466.595	2166.25
467.178	2121.25
467.762	2057.25
468.345	1966.25
468.928	1889.25
469.511	1786.25
470.094	1678.25
470.676	1598.25
471.259	1467.25
471.842	1410.25
472.425	1311.25
473.007	1216.25
473.59	1146.25
474.172	1050.25
474.755	962.25
475.337	912.25
475.919	860.25
476.502	837.25
477.084	769.25
477.666	732.25
478.248	693.25
478.83	645.25
479.412	625.25
479.994	595.25
480.576	562.25
481.157	535.25
481.739	523.25
482.321	487.25
482.902	446.25
483.484	435.25
484.065	413.25
484.647	377.25
485.228	358.25
485.809	340.25
486.391	307.25
486.972	300.25
487.553	281.25
488.134	260.25
488.715	240.25
489.296	221.25
489.877	208.25
490.458	208.25
491.038	192.25
491.619	181.25
492.2	170.25
492.78	160.25
493.361	153.25
493.941	148.25
494.522	148.25
495.102	132.25
495.682	130.25
496.262	124.25
496.843	116.25
497.423	121.25
498.003	110.25
498.583	119.25
499.163	99.25
499.742	100.25
500.322	103.25
500.902	97.25
501.482	97.25
502.061	93.25
502.641	86.25
503.22	82.25
503.8	79.25
504.379	81.25
504.958	81.25
505.538	80.25
506.117	85.25
506.696	73.25
507.275	74.25
507.854	75.25
508.433	77.25
509.012	72.25
509.591	74.25
510.169	80.25
510.748	84.25
511.327	84.25
511.905	84.25
512.484	99.25
513.062	98.25
513.641	106.25
514.219	113.25
514.797	117.25
515.375	130.25
515.954	127.25
516.532	127.25
517.11	128.25
517.688	144.25
518.266	143.25
518.843	159.25
519.421	178.25
519.999	176.25
520.577	191.25
521.154	196.25
521.732	202.25
522.309	215.25
522.887	229.25
523.464	240.25
524.041	246.25
524.619	245.25
525.196	255.25
525.773	253.25
526.35	263.25
526.927	280.25
527.504	273.25
528.081	295.25
528.658	297.25
529.235	305.25
529.811	307.25
530.388	307.25
530.964	317.25
531.541	313.25
532.117	304.25
532.694	314.25
533.27	314.25
533.846	319.25
534.423	322.25
534.999	303.25
535.575	314.25
536.151	306.25
536.727	311.25
537.303	295.25
537.879	294.25
538.455	307.25
539.03	298.25
539.606	304.25
540.182	309.25
540.757	289.25
541.333	281.25
541.908	289.25
542.483	283.25
543.059	286.25
543.634	275.25
544.209	279.25
544.784	269.25
545.359	289.25
545.934	262.25
546.509	277.25
547.084	262.25
547.659	273.25
548.234	260.25
548.808	261.25
549.383	254.25
549.958	254.25
550.532	247.25
551.107	250.25
551.681	260.25
552.255	254.25
552.83	249.25
553.404	240.25
553.978	241.25
554.552	243.25
555.126	230.25
555.7	250.25
556.274	248.25
556.848	245.25
557.422	256.25
557.995	245.25
558.569	257.25
559.143	264.25
559.716	245.25
560.29	270.25
560.863	260.25
561.437	270.25
562.01	278.25
562.583	269.25
563.156	280.25
563.729	277.25
564.302	276.25
564.875	298.25
565.448	300.25
566.021	303.25
566.594	299.25
567.167	302.25
567.74	311.25
568.312	305.25
568.885	308.25
569.457	314.25
570.03	319.25
570.602	330.25
571.174	322.25
571.747	318.25
572.319	319.25
572.891	323.25
573.463	326.25
574.035	314.25
574.607	322.25
575.179	331.25
575.751	324.25
576.323	323.25
576.894	320.25
577.466	324.25
578.038	318.25
578.609	318.25
579.181	314.25
579.752	328.25
580.323	318.25
580.895	306.25
581.466	330.25
582.037	319.25
582.608	313.25
583.179	328.25
583.75	322.25
584.321	329.25
584.892	318.25
585.463	340.25
586.033	333.25
586.604	344.25
587.175	340.25
587.745	334.25
588.316	342.25
588.886	330.25
589.457	336.25
590.027	347.25
590.597	339.25
591.167	342.25
591.737	342.25
592.308	337.25
592.878	335.25
593.447	331.25
594.017	328.25
594.587	317.25
595.157	317.25
595.727	318.25
596.296	319.25
596.866	309.25
597.435	310.25
598.005	300.25
598.574	318.25
599.143	292.25
599.713	308.25
600.282	312.25
600.851	315.25
601.42	307.25
601.989	304.25
602.558	300.25
603.127	306.25
603.696	295.25
604.265	290.25
604.833	287.25
605.402	293.25
605.971	284.25
606.539	289.25
607.108	294.25
607.676	280.25
608.244	304.25
608.813	303.25
609.381	305.25
609.949	288.25
610.517	292.25
611.085	289.25
611.653	288.25
612.221	295.25
612.789	291.25
613.357	281.25
613.924	302.25
614.492	291.25
615.06	283.25
615.627	277.25
616.195	285.25
616.762	287.25
617.329	280.25
617.897	283.25
618.464	274.25
619.031	276.25
619.598	277.25
620.165	275.25
620.732	270.25
621.299	279.25
621.866	293.25
622.433	277.25
623	280.25
623.566	269.25
624.133	266.25
624.7	282.25
625.266	271.25
625.832	273.25
626.399	276.25
626.965	252.25
627.531	262.25
628.098	255.25
628.664	249.25
629.23	254.25
629.796	257.25
630.362	267.25
630.928	266.25
631.493	254.25
632.059	254.25
632.625	250.25
633.19	250.25
633.756	253.25
634.322	247.25
634.887	246.25
635.452	257.25
636.018	243.25
636.583	245.25
637.148	242.25
637.713	230.25
638.278	240.25
638.843	245.25
639.408	241.25
639.973	227.25
640.538	219.25
641.103	219.25
641.667	218.25
642.232	222.25
642.797	221.25
643.361	219.25
643.926	226.25
644.49	213.25
645.054	211.25
645.619	208.25
646.183	214.25
646.747	200.25
647.311	207.25
647.875	197.25
648.439	200.25
649.003	207.25
649.567	191.25
650.131	197.25
650.694	204.25
651.258	197.25
651.822	189.25
652.385	190.25
652.949	195.25
653.512	194.25
654.075	188.25
654.639	187.25
655.202	177.25
655.765	189.25
656.328	188.25
656.891	185.25
657.454	173.25
658.017	182.25
658.58	166.25
659.143	171.25
659.705	160.25
660.268	163.25
660.83	163.25
661.393	162.25
661.955	164.25
662.518	161.25
663.08	161.25
663.643	165.25
664.205	148.25
664.767	159.25
665.329	157.25
665.891	154.25
666.453	149.25
667.015	145.25
667.577	156.25
668.139	141.25
668.7	148.25
669.262	144.25
669.824	140.25
670.385	143.25
670.947	145.25
671.508	143.25
672.069	142.25
672.631	133.25
673.192	139.25
673.753	143.25
674.314	134.25
674.875	134.25
675.436	135.25
675.997	134.25
676.558	129.25
677.119	129.25
677.679	126.25
678.24	129.25
678.801	122.25
679.361	127.25
679.922	116.25
680.482	130.25
681.042	132.25
681.603	124.25
682.163	115.25
682.723	125.25
683.283	126.25
683.843	119.25
684.403	115.25
684.963	117.25
685.523	118.25
686.083	114.25
686.642	115.25
687.202	121.25
687.762	110.25
688.321	104.25
688.881	106.25
689.44	107.25
690	104.25
690.559	105.25
691.118	104.25
691.677	99.25
692.236	103.25
692.795	96.25
693.354	97.25
693.913	101.25
694.472	96.25
695.031	96.25
695.59	98.25
696.148	91.25
696.707	80.25
697.265	94.25
697.824	86.25
698.382	84.25
698.941	83.25
699.499	74.25
700.057	84.25
700.615	81.25
701.173	78.25
701.731	89.25
702.289	82.25
702.847	72.25
703.405	81.25
703.963	81.25
704.521	74.25
705.078	78.25
705.636	73.25
706.194	71.25
706.751	72.25
707.308	72.25
707.866	75.25
708.423	68.25
708.98	63.25
709.537	69.25
710.095	66.25
710.652	64.25
711.209	65.25
711.765	62.25
712.322	57.25
712.879	64.25
713.436	54.25
713.992	68.25
714.549	57.25
715.106	60.25
715.662	60.25
716.218	51.25
716.775	61.25
717.331	55.25
717.887	45.25
718.443	58.25
719	59.25
719.556	50.25
720.112	49.25
720.667	50.25
721.223	51.25
721.779	54.25
722.335	50.25
722.89	48.25
723.446	50.25
724.002	41.25
724.557	46.25
725.112	49.25
725.668	47.25
726.223	48.25
726.778	45.25
727.333	45.25
727.888	45.25
728.443	44.25
728.998	40.25
729.553	37.25
730.108	43.25
730.663	40.25
731.218	43.25
731.772	42.25
732.327	42.25
732.881	39.25
733.436	39.25
733.99	37.25
734.545	41.25
735.099	38.25
735.653	37.25
736.207	38.25
736.761	34.25
737.315	36.25
737.869	36.25
738.423	27.25
738.977	34.25
739.531	36.25
740.084	39.25
740.638	31.25
741.192	29.25
741.745	36.25
742.299	31.25
742.852	28.25
743.405	27.25
743.959	26.25
744.512	28.25
745.065	28.25
745.618	30.25
746.171	29.25
746.724	31.25
747.277	27.25
747.83	27.25
748.382	30.25
748.935	28.25
749.488	24.25
750.04	27.25
750.593	26.25
751.145	23.25
751.698	24.25
752.25	21.25
752.802	25.25
753.354	20.25
753.906	24.25
754.458	28.25
755.01	21.25
755.562	19.25
756.114	21.25
756.666	21.25
757.218	26.25
757.769	21.25
758.321	21.25
758.873	22.25
759.424	23.25
759.975	22.25
760.527	18.25
761.078	21.25
761.629	21.25
762.181	19.25
762.732	23.25
763.283	19.25
763.834	17.25
764.385	16.25
764.935	16.25
765.486	15.25
766.037	17.25
766.588	14.25
767.138	14.25
767.689	15.25
768.239	15.25
768.79	13.25
769.34	15.25
769.89	12.25
770.44	15.25
770.991	16.25
771.541	14.25
772.091	19.25
772.641	12.25
773.191	15.25
773.74	16.25
774.29	12.25
774.84	15.25
775.39	16.25
775.939	12.25
776.489	12.25
777.038	15.25
777.588	12.25
778.137	15.25
778.686	15.25
779.235	19.25
779.784	15.25
780.334	15.25
780.883	14.25
781.431	6.25
781.98	12.25
782.529	13.25
783.078	11.25
783.627	12.25
784.175	12.25
784.724	12.25
785.272	12.25
785.821	11.25
786.369	11.25
786.917	9.25
787.466	12.25
788.014	11.25
788.562	14.25
789.11	8.25
789.658	8.25
790.206	13.25
790.754	6.25
791.302	8.25
791.849	9.25
792.397	9.25
792.945	10.25
793.492	11.25
794.04	8.25
794.587	5.25
795.134	7.25
795.682	7.25
796.229	10.25
796.776	7.25
797.323	4.25
797.87	14.25
798.417	8.25
798.964	7.25
799.511	5.25
800.058	7.25
800.604	7.25
801.151	6.25
801.698	9.25
802.244	6.25
802.791	10.25
803.337	11.25
803.883	11.25
804.43	7.25
804.976	4.25
805.522	3.25
806.068	12.25
806.614	9.25
807.16	3.25
807.706	8.25
808.252	7.25
808.797	3.25
809.343	7.25
809.889	7.25
810.434	5.25
810.98	8.25
811.525	1.25
812.071	2.25
812.616	5.25
813.161	3.25
813.706	5.25
814.252	4.25
814.797	2.25
815.342	7.25
815.886	6.25
816.431	5.25
816.976	6.25
817.521	3.25
818.066	6.25
818.61	6.25
819.155	4.25
819.699	4.25
820.244	5.25
820.788	7.25
821.332	4.25
821.876	3.25
822.421	6.25
822.965	5.25
823.509	4.25
824.053	3.25
824.597	6.25
825.14	6.25
825.684	2.25
826.228	5.25
826.771	2.25
827.315	4.25
827.859	3.25
828.402	1.25
828.945	3.25
829.489	2.25
830.032	4.25
830.575	5.25
831.118	5.25
831.661	-0.75
832.204	0.25
832.747	5.25
833.29	4.25
833.833	3.25
834.376	3.25
834.918	2.25
835.461	3.25
836.004	5.25
836.546	0.25
837.088	4.25
837.631	1.25
838.173	5.25
838.715	6.25
839.257	2.25
839.8	2.25
840.342	4.25
840.884	3.25
841.425	6.25
841.967	6.25
842.509	5.25
843.051	3.25
843.592	1.25
844.134	2.25
844.676	6.25
845.217	3.25
845.758	2.25
846.3	4.25
846.841	3.25
847.382	0.25
847.923	2.25
848.464	-0.75
849.005	4.25
849.546	1.25
850.087	3.25
850.628	-0.75
851.169	4.25
851.709	1.25
852.25	1.25
852.791	6.25
853.331	-1.75
853.871	1.25
854.412	1.25
854.952	-1.75
855.492	1.25
856.033	1.25
856.573	4.25
857.113	-2.75
857.653	-0.75
858.193	0.25
858.732	1.25
859.272	3.25
859.812	2.25
860.352	3.25
860.891	-0.75
861.431	0.25
861.97	4.25
862.509	1.25
863.049	0.25
863.588	2.25
864.127	0.25
864.666	1.25
865.205	1.25
865.744	1.25
866.283	5.25
866.822	0.25
867.361	0.25
867.9	0.25
868.438	-0.75
868.977	-1.75
869.516	-3.75
870.054	1.25
870.593	-0.75
871.131	2.25
871.669	1.25
872.207	1.25
872.746	0.25
873.284	2.25
873.822	2.25
874.36	4.25
874.898	-1.75
875.435	-0.75
875.973	0.25
876.511	-0.75
877.048	-2.75
877.586	2.25
878.124	3.25
878.661	0.25
879.198	3.25
879.736	1.25
880.273	-0.75
880.81	-0.75
881.347	-2.75
881.884	-0.75
882.421	1.25
882.958	2.25
883.495	-1.75
884.032	1.25
884.569	-0.75
885.105	3.25
885.642	0.25
886.178	0.25
886.715	2.25
887.251	1.25
887.788	-0.75
888.324	-1.75
888.86	-1.75
889.396	1.25
889.932	-3.75
890.468	-2.75
891.004	-1.75
891.54	-2.75
892.076	0.25
892.612	-2.75
893.147	-0.75
893.683	2.25
894.219	2.25
894.754	1.25
895.29	1.25
895.825	-3.75
896.36	4.25
896.896	0.25
897.431	1.25
897.966	3.25
898.501	-1.75
899.036	-0.75
899.571	-0.75
900.106	-1.75
900.64	2.25
901.175	0.25
901.71	3.25
902.244	-2.75
902.779	-1.75
903.313	2.25
903.848	-1.75
904.382	4.25
904.916	2.25
905.45	1.25
905.985	0.25
906.519	3.25
907.053	-0.75
907.587	2.25
908.12	5.25
908.654	2.25
909.188	2.25
909.722	-0.75
910.255	0.25
910.789	0.25
911.322	1.25
911.856	0.25
912.389	0.25
912.922	1.25
913.456	2.25
913.989	1.25
914.522	0.25
915.055	-0.75
915.588	3.25
916.121	-1.75
916.653	-0.75
917.186	-1.75
917.719	-0.75
918.252	3.25
918.784	-0.75
919.317	2.25
919.849	1.25
920.381	-1.75
920.914	-2.75
921.446	2.25
921.978	-2.75
922.51	3.25
923.042	-1.75
923.574	1.25
924.106	0.25
924.638	-0.75
925.17	2.25
925.701	0.25
926.233	5.25
926.765	-0.75
927.296	1.25
927.828	1.25
928.359	-0.75
928.89	0.25
929.422	0.25
929.953	-2.75
930.484	0.25
931.015	-0.75
931.546	-2.75
932.077	-2.75
932.608	1.25
933.138	-2.75
933.669	0.25
934.2	-3.75
934.73	-4.75
935.261	-4.75
