Data from LOOPyPMA-1_QEP046991__4__18-11-13-757.txt Node

Date: Sun May 11 18:11:13 CEST 2025
User: superuser
Spectrometer: QEP04699
Trigger mode: 4
Integration Time (sec): 1.000000E-1
Scans to average: 1
Electric dark correction enabled: true
Nonlinearity correction enabled: false
Boxcar width: 0
XAxis mode: Wavelengths
Number of Pixels in Spectrum: 1044
>>>>>Begin Spectral Data<<<<<
347.57	11.88
348.165	1.88
348.76	0.88
349.355	-2.12
349.95	1.88
350.545	-2.12
351.14	-3.12
351.735	0.88
352.33	0.88
352.924	-0.12
353.519	-1.12
354.114	2.88
354.708	-0.12
355.303	-2.12
355.897	1.88
356.491	-2.12
357.086	-0.12
357.68	-2.12
358.274	-0.12
358.868	0.88
359.462	-1.12
360.056	-0.12
360.65	0.88
361.244	-1.12
361.838	-0.12
362.431	-3.12
363.025	-3.12
363.619	0.88
364.212	-1.12
364.806	-2.12
365.399	-1.12
365.993	-0.12
366.586	-2.12
367.179	-1.12
367.772	0.88
368.366	-0.12
368.959	-2.12
369.552	-0.12
370.145	-2.12
370.738	2.88
371.331	-2.12
371.923	1.88
372.516	-1.12
373.109	-3.12
373.701	-2.12
374.294	2.88
374.887	0.88
375.479	1.88
376.071	-3.12
376.664	0.88
377.256	-0.12
377.848	3.88
378.44	2.88
379.033	0.88
379.625	-3.12
380.217	-3.12
380.808	-0.12
381.4	1.88
381.992	-3.12
382.584	-2.12
383.176	-0.12
383.767	-1.12
384.359	-0.12
384.95	2.88
385.542	1.88
386.133	-0.12
386.725	1.88
387.316	-2.12
387.907	-1.12
388.498	-0.12
389.089	-2.12
389.68	2.88
390.271	-1.12
390.862	-2.12
391.453	-0.12
392.044	0.88
392.635	0.88
393.225	1.88
393.816	-2.12
394.407	1.88
394.997	4.88
395.588	0.88
396.178	0.88
396.768	5.88
397.359	-0.12
397.949	1.88
398.539	-0.12
399.129	1.88
399.719	-0.12
400.309	-2.12
400.899	-0.12
401.489	-2.12
402.079	2.88
402.668	4.88
403.258	1.88
403.848	1.88
404.437	1.88
405.027	-1.12
405.616	3.88
406.206	2.88
406.795	3.88
407.384	-1.12
407.973	0.88
408.563	-1.12
409.152	-2.12
409.741	4.88
410.33	5.88
410.919	3.88
411.508	0.88
412.096	4.88
412.685	2.88
413.274	2.88
413.862	5.88
414.451	5.88
415.039	3.88
415.628	5.88
416.216	3.88
416.805	10.88
417.393	7.88
417.981	10.88
418.569	8.88
419.157	9.88
419.745	9.88
420.333	14.88
420.921	13.88
421.509	10.88
422.097	16.88
422.685	18.88
423.272	13.88
423.86	18.88
424.447	15.88
425.035	21.88
425.622	22.88
426.21	20.88
426.797	23.88
427.384	26.88
427.972	33.88
428.559	35.88
429.146	33.88
429.733	43.88
430.32	39.88
430.907	47.88
431.494	52.88
432.08	50.88
432.667	61.88
433.254	66.88
433.84	68.88
434.427	70.88
435.013	81.88
435.6	89.88
436.186	95.88
436.772	101.88
437.359	105.88
437.945	108.88
438.531	124.88
439.117	135.88
439.703	141.88
440.289	159.88
440.875	173.88
441.461	176.88
442.047	196.88
442.632	197.88
443.218	223.88
443.804	245.88
444.389	265.88
444.975	284.88
445.56	304.88
446.145	322.88
446.731	352.88
447.316	381.88
447.901	404.88
448.486	426.88
449.071	457.88
449.656	500.88
450.241	521.88
450.826	572.88
451.411	615.88
451.996	659.88
452.58	687.88
453.165	765.88
453.75	816.88
454.334	889.88
454.919	954.88
455.503	1028.88
456.087	1086.88
456.672	1182.88
457.256	1270.88
457.84	1344.88
458.424	1454.88
459.008	1575.88
459.592	1625.88
460.176	1739.88
460.76	1825.88
461.344	1916.88
461.927	1997.88
462.511	2065.88
463.095	2112.88
463.678	2192.88
464.262	2230.88
464.845	2227.88
465.429	2212.88
466.012	2212.88
466.595	2140.88
467.178	2094.88
467.762	2040.88
468.345	1992.88
468.928	1902.88
469.511	1774.88
470.094	1690.88
470.676	1576.88
471.259	1500.88
471.842	1414.88
472.425	1293.88
473.007	1219.88
473.59	1146.88
474.172	1076.88
474.755	965.88
475.337	923.88
475.919	861.88
476.502	836.88
477.084	767.88
477.666	715.88
478.248	691.88
478.83	649.88
479.412	625.88
479.994	599.88
480.576	568.88
481.157	525.88
481.739	505.88
482.321	487.88
482.902	475.88
483.484	433.88
484.065	404.88
484.647	383.88
485.228	361.88
485.809	336.88
486.391	321.88
486.972	296.88
487.553	286.88
488.134	254.88
488.715	245.88
489.296	211.88
489.877	207.88
490.458	191.88
491.038	191.88
491.619	173.88
492.2	165.88
492.78	152.88
493.361	152.88
493.941	147.88
494.522	142.88
495.102	134.88
495.682	123.88
496.262	112.88
496.843	117.88
497.423	115.88
498.003	112.88
498.583	111.88
499.163	106.88
499.742	100.88
500.322	102.88
500.902	87.88
501.482	98.88
502.061	90.88
502.641	88.88
503.22	85.88
503.8	86.88
504.379	81.88
504.958	85.88
505.538	74.88
506.117	81.88
506.696	73.88
507.275	76.88
507.854	72.88
508.433	78.88
509.012	81.88
509.591	75.88
510.169	83.88
510.748	82.88
511.327	80.88
511.905	94.88
512.484	90.88
513.062	91.88
513.641	102.88
514.219	101.88
514.797	101.88
515.375	123.88
515.954	125.88
516.532	122.88
517.11	131.88
517.688	140.88
518.266	153.88
518.843	172.88
519.421	162.88
519.999	172.88
520.577	196.88
521.154	200.88
521.732	195.88
522.309	209.88
522.887	219.88
523.464	242.88
524.041	238.88
524.619	246.88
525.196	245.88
525.773	269.88
526.35	260.88
526.927	280.88
527.504	279.88
528.081	298.88
528.658	303.88
529.235	298.88
529.811	310.88
530.388	303.88
530.964	311.88
531.541	298.88
532.117	310.88
532.694	323.88
533.27	299.88
533.846	312.88
534.423	318.88
534.999	308.88
535.575	315.88
536.151	306.88
536.727	303.88
537.303	315.88
537.879	305.88
538.455	294.88
539.03	296.88
539.606	295.88
540.182	288.88
540.757	296.88
541.333	297.88
541.908	287.88
542.483	284.88
543.059	283.88
543.634	282.88
544.209	287.88
544.784	280.88
545.359	270.88
545.934	275.88
546.509	273.88
547.084	264.88
547.659	252.88
548.234	271.88
548.808	259.88
549.383	268.88
549.958	263.88
550.532	253.88
551.107	263.88
551.681	247.88
552.255	264.88
552.83	248.88
553.404	250.88
553.978	257.88
554.552	240.88
555.126	245.88
555.7	254.88
556.274	249.88
556.848	253.88
557.422	247.88
557.995	254.88
558.569	258.88
559.143	257.88
559.716	257.88
560.29	260.88
560.863	253.88
561.437	272.88
562.01	272.88
562.583	279.88
563.156	285.88
563.729	286.88
564.302	297.88
564.875	299.88
565.448	304.88
566.021	292.88
566.594	291.88
567.167	299.88
567.74	314.88
568.312	297.88
568.885	320.88
569.457	316.88
570.03	316.88
570.602	310.88
571.174	315.88
571.747	324.88
572.319	326.88
572.891	314.88
573.463	329.88
574.035	317.88
574.607	313.88
575.179	322.88
575.751	320.88
576.323	314.88
576.894	323.88
577.466	314.88
578.038	322.88
578.609	319.88
579.181	322.88
579.752	315.88
580.323	318.88
580.895	320.88
581.466	315.88
582.037	322.88
582.608	325.88
583.179	334.88
583.75	340.88
584.321	333.88
584.892	323.88
585.463	314.88
586.033	328.88
586.604	329.88
587.175	331.88
587.745	328.88
588.316	339.88
588.886	344.88
589.457	331.88
590.027	340.88
590.597	339.88
591.167	341.88
591.737	336.88
592.308	321.88
592.878	333.88
593.447	317.88
594.017	329.88
594.587	330.88
595.157	320.88
595.727	321.88
596.296	322.88
596.866	315.88
597.435	318.88
598.005	322.88
598.574	309.88
599.143	312.88
599.713	314.88
600.282	310.88
600.851	297.88
601.42	303.88
601.989	304.88
602.558	290.88
603.127	300.88
603.696	295.88
604.265	287.88
604.833	291.88
605.402	297.88
605.971	291.88
606.539	297.88
607.108	289.88
607.676	284.88
608.244	282.88
608.813	291.88
609.381	296.88
609.949	278.88
610.517	279.88
611.085	280.88
611.653	283.88
612.221	283.88
612.789	273.88
613.357	272.88
613.924	291.88
614.492	281.88
615.06	296.88
615.627	288.88
616.195	279.88
616.762	281.88
617.329	272.88
617.897	283.88
618.464	279.88
619.031	287.88
619.598	266.88
620.165	279.88
620.732	267.88
621.299	280.88
621.866	278.88
622.433	270.88
623	269.88
623.566	268.88
624.133	256.88
624.7	282.88
625.266	259.88
625.832	253.88
626.399	277.88
626.965	258.88
627.531	266.88
628.098	256.88
628.664	261.88
629.23	260.88
629.796	257.88
630.362	257.88
630.928	268.88
631.493	256.88
632.059	245.88
632.625	255.88
633.19	256.88
633.756	241.88
634.322	229.88
634.887	242.88
635.452	241.88
636.018	246.88
636.583	240.88
637.148	234.88
637.713	229.88
638.278	229.88
638.843	230.88
639.408	238.88
639.973	232.88
640.538	232.88
641.103	231.88
641.667	223.88
642.232	216.88
642.797	209.88
643.361	219.88
643.926	221.88
644.49	214.88
645.054	221.88
645.619	217.88
646.183	213.88
646.747	213.88
647.311	210.88
647.875	199.88
648.439	208.88
649.003	204.88
649.567	194.88
650.131	202.88
650.694	199.88
651.258	197.88
651.822	196.88
652.385	181.88
652.949	189.88
653.512	191.88
654.075	188.88
654.639	171.88
655.202	188.88
655.765	180.88
656.328	174.88
656.891	177.88
657.454	177.88
658.017	178.88
658.58	170.88
659.143	173.88
659.705	175.88
660.268	169.88
660.83	160.88
661.393	171.88
661.955	161.88
662.518	155.88
663.08	158.88
663.643	168.88
664.205	158.88
664.767	146.88
665.329	155.88
665.891	155.88
666.453	151.88
667.015	155.88
667.577	153.88
668.139	137.88
668.7	146.88
669.262	153.88
669.824	151.88
670.385	139.88
670.947	135.88
671.508	129.88
672.069	136.88
672.631	142.88
673.192	132.88
673.753	139.88
674.314	136.88
674.875	137.88
675.436	123.88
675.997	136.88
676.558	130.88
677.119	138.88
677.679	130.88
678.24	123.88
678.801	124.88
679.361	119.88
679.922	125.88
680.482	125.88
681.042	118.88
681.603	129.88
682.163	126.88
682.723	123.88
683.283	116.88
683.843	115.88
684.403	119.88
684.963	103.88
685.523	118.88
686.083	119.88
686.642	117.88
687.202	115.88
687.762	105.88
688.321	105.88
688.881	116.88
689.44	105.88
690	103.88
690.559	98.88
691.118	94.88
691.677	95.88
692.236	106.88
692.795	101.88
693.354	100.88
693.913	88.88
694.472	88.88
695.031	95.88
695.59	90.88
696.148	86.88
696.707	91.88
697.265	89.88
697.824	86.88
698.382	84.88
698.941	83.88
699.499	86.88
700.057	87.88
700.615	81.88
701.173	72.88
701.731	83.88
702.289	82.88
702.847	75.88
703.405	78.88
703.963	83.88
704.521	69.88
705.078	77.88
705.636	80.88
706.194	70.88
706.751	71.88
707.308	71.88
707.866	73.88
708.423	67.88
708.98	65.88
709.537	63.88
710.095	73.88
710.652	70.88
711.209	63.88
711.765	62.88
712.322	63.88
712.879	62.88
713.436	58.88
713.992	63.88
714.549	56.88
715.106	54.88
715.662	58.88
716.218	58.88
716.775	50.88
717.331	52.88
717.887	61.88
718.443	55.88
719	53.88
719.556	54.88
720.112	54.88
720.667	51.88
721.223	51.88
721.779	50.88
722.335	48.88
722.89	47.88
723.446	36.88
724.002	44.88
724.557	43.88
725.112	39.88
725.668	41.88
726.223	46.88
726.778	49.88
727.333	42.88
727.888	43.88
728.443	45.88
728.998	41.88
729.553	37.88
730.108	45.88
730.663	38.88
731.218	41.88
731.772	40.88
732.327	35.88
732.881	41.88
733.436	39.88
733.99	35.88
734.545	38.88
735.099	37.88
735.653	39.88
736.207	36.88
736.761	34.88
737.315	31.88
737.869	40.88
738.423	36.88
738.977	34.88
739.531	38.88
740.084	36.88
740.638	33.88
741.192	36.88
741.745	30.88
742.299	30.88
742.852	30.88
743.405	30.88
743.959	31.88
744.512	28.88
745.065	26.88
745.618	26.88
746.171	29.88
746.724	33.88
747.277	23.88
747.83	27.88
748.382	32.88
748.935	30.88
749.488	23.88
750.04	29.88
750.593	24.88
751.145	21.88
751.698	23.88
752.25	26.88
752.802	24.88
753.354	19.88
753.906	22.88
754.458	23.88
755.01	25.88
755.562	23.88
756.114	21.88
756.666	25.88
757.218	24.88
757.769	22.88
758.321	24.88
758.873	17.88
759.424	22.88
759.975	20.88
760.527	23.88
761.078	15.88
761.629	20.88
762.181	18.88
762.732	21.88
763.283	16.88
763.834	16.88
764.385	16.88
764.935	18.88
765.486	17.88
766.037	19.88
766.588	20.88
767.138	16.88
767.689	16.88
768.239	13.88
768.79	17.88
769.34	11.88
769.89	17.88
770.44	15.88
770.991	11.88
771.541	11.88
772.091	14.88
772.641	16.88
773.191	15.88
773.74	12.88
774.29	14.88
774.84	16.88
775.39	12.88
775.939	15.88
776.489	13.88
777.038	9.88
777.588	16.88
778.137	16.88
778.686	16.88
779.235	14.88
779.784	10.88
780.334	12.88
780.883	9.88
781.431	10.88
781.98	14.88
782.529	13.88
783.078	12.88
783.627	10.88
784.175	11.88
784.724	11.88
785.272	11.88
785.821	10.88
786.369	9.88
786.917	11.88
787.466	10.88
788.014	11.88
788.562	8.88
789.11	7.88
789.658	12.88
790.206	7.88
790.754	10.88
791.302	15.88
791.849	9.88
792.397	8.88
792.945	9.88
793.492	11.88
794.04	5.88
794.587	4.88
795.134	10.88
795.682	9.88
796.229	5.88
796.776	9.88
797.323	7.88
797.87	5.88
798.417	8.88
798.964	8.88
799.511	5.88
800.058	5.88
800.604	6.88
801.151	10.88
801.698	5.88
802.244	5.88
802.791	5.88
803.337	5.88
803.883	6.88
804.43	7.88
804.976	6.88
805.522	4.88
806.068	6.88
806.614	8.88
807.16	-2.12
807.706	4.88
808.252	7.88
808.797	3.88
809.343	8.88
809.889	4.88
810.434	4.88
810.98	3.88
811.525	5.88
812.071	7.88
812.616	5.88
813.161	1.88
813.706	1.88
814.252	3.88
814.797	2.88
815.342	5.88
815.886	-1.12
816.431	7.88
816.976	6.88
817.521	1.88
818.066	4.88
818.61	3.88
819.155	2.88
819.699	5.88
820.244	1.88
820.788	3.88
821.332	8.88
821.876	1.88
822.421	3.88
822.965	2.88
823.509	9.88
824.053	4.88
824.597	7.88
825.14	5.88
825.684	-0.12
826.228	5.88
826.771	5.88
827.315	2.88
827.859	6.88
828.402	1.88
828.945	5.88
829.489	5.88
830.032	2.88
830.575	1.88
831.118	2.88
831.661	-1.12
832.204	3.88
832.747	-1.12
833.29	0.88
833.833	2.88
834.376	-0.12
834.918	5.88
835.461	3.88
836.004	0.88
836.546	0.88
837.088	3.88
837.631	1.88
838.173	1.88
838.715	0.88
839.257	0.88
839.8	3.88
840.342	5.88
840.884	4.88
841.425	0.88
841.967	5.88
842.509	-1.12
843.051	1.88
843.592	1.88
844.134	0.88
844.676	-0.12
845.217	0.88
845.758	2.88
846.3	-0.12
846.841	-0.12
847.382	-0.12
847.923	3.88
848.464	-1.12
849.005	2.88
849.546	1.88
850.087	-1.12
850.628	0.88
851.169	-3.12
851.709	2.88
852.25	-0.12
852.791	0.88
853.331	2.88
853.871	1.88
854.412	0.88
854.952	0.88
855.492	3.88
856.033	2.88
856.573	4.88
857.113	0.88
857.653	-2.12
858.193	-1.12
858.732	-1.12
859.272	-1.12
859.812	2.88
860.352	4.88
860.891	-0.12
861.431	-1.12
861.97	-0.12
862.509	0.88
863.049	-0.12
863.588	-0.12
864.127	4.88
864.666	2.88
865.205	4.88
865.744	3.88
866.283	3.88
866.822	0.88
867.361	-0.12
867.9	0.88
868.438	-4.12
868.977	1.88
869.516	-1.12
870.054	-1.12
870.593	-0.12
871.131	2.88
871.669	-1.12
872.207	-1.12
872.746	-0.12
873.284	1.88
873.822	-1.12
874.36	3.88
874.898	-0.12
875.435	-2.12
875.973	-0.12
876.511	-0.12
877.048	-1.12
877.586	-1.12
878.124	-2.12
878.661	0.88
879.198	0.88
879.736	1.88
880.273	-0.12
880.81	2.88
881.347	-2.12
881.884	1.88
882.421	-1.12
882.958	0.88
883.495	0.88
884.032	-0.12
884.569	2.88
885.105	-0.12
885.642	2.88
886.178	1.88
886.715	0.88
887.251	-0.12
887.788	-0.12
888.324	-1.12
888.86	-3.12
889.396	1.88
889.932	-2.12
890.468	0.88
891.004	1.88
891.54	4.88
892.076	-1.12
892.612	-0.12
893.147	0.88
893.683	0.88
894.219	0.88
894.754	2.88
895.29	1.88
895.825	-0.12
896.36	-4.12
896.896	0.88
897.431	2.88
897.966	-0.12
898.501	-1.12
899.036	-2.12
899.571	-0.12
900.106	0.88
900.64	-3.12
901.175	-3.12
901.71	-2.12
902.244	-1.12
902.779	-2.12
903.313	1.88
903.848	0.88
904.382	0.88
904.916	0.88
905.45	1.88
905.985	1.88
906.519	-0.12
907.053	-0.12
907.587	-1.12
908.12	0.88
908.654	-4.12
909.188	-1.12
909.722	-3.12
910.255	-5.12
910.789	-2.12
911.322	1.88
911.856	0.88
912.389	1.88
912.922	1.88
913.456	-1.12
913.989	4.88
914.522	-0.12
915.055	-3.12
915.588	0.88
916.121	0.88
916.653	0.88
917.186	-0.12
917.719	3.88
918.252	2.88
918.784	1.88
919.317	1.88
919.849	-0.12
920.381	0.88
920.914	0.88
921.446	1.88
921.978	-3.12
922.51	-1.12
923.042	-2.12
923.574	-0.12
924.106	-0.12
924.638	-0.12
925.17	-1.12
925.701	-0.12
926.233	-3.12
926.765	-2.12
927.296	-3.12
927.828	-2.12
928.359	-2.12
928.89	0.88
929.422	0.88
929.953	-2.12
930.484	0.88
931.015	-2.12
931.546	-2.12
932.077	-1.12
932.608	2.88
933.138	-2.12
933.669	-2.12
934.2	-6.12
934.73	-1.12
935.261	-3.12
