Data from LOOPyPMA-1_QEP046991__31__18-11-40-758.txt Node

Date: Sun May 11 18:11:40 CEST 2025
User: superuser
Spectrometer: QEP04699
Trigger mode: 4
Integration Time (sec): 1.000000E-1
Scans to average: 1
Electric dark correction enabled: true
Nonlinearity correction enabled: false
Boxcar width: 0
XAxis mode: Wavelengths
Number of Pixels in Spectrum: 1044
>>>>>Begin Spectral Data<<<<<
347.57	12.5
348.165	1.5
348.76	-0.5
349.355	-1.5
349.95	-0.5
350.545	0.5
351.14	0.5
351.735	0.5
352.33	-1.5
352.924	3.5
353.519	4.5
354.114	2.5
354.708	-1.5
355.303	-3.5
355.897	1.5
356.491	3.5
357.086	0.5
357.68	-0.5
358.274	-0.5
358.868	1.5
359.462	-2.5
360.056	0.5
360.65	-1.5
361.244	-1.5
361.838	0.5
362.431	-1.5
363.025	2.5
363.619	-1.5
364.212	-1.5
364.806	3.5
365.399	0.5
365.993	0.5
366.586	4.5
367.179	5.5
367.772	0.5
368.366	1.5
368.959	0.5
369.552	1.5
370.145	2.5
370.738	-0.5
371.331	1.5
371.923	-0.5
372.516	1.5
373.109	-1.5
373.701	-0.5
374.294	3.5
374.887	0.5
375.479	-1.5
376.071	-0.5
376.664	-0.5
377.256	2.5
377.848	0.5
378.44	0.5
379.033	1.5
379.625	3.5
380.217	0.5
380.808	-0.5
381.4	0.5
381.992	2.5
382.584	0.5
383.176	3.5
383.767	-4.5
384.359	1.5
384.95	-0.5
385.542	3.5
386.133	-0.5
386.725	-4.5
387.316	-1.5
387.907	1.5
388.498	3.5
389.089	1.5
389.68	1.5
390.271	1.5
390.862	1.5
391.453	1.5
392.044	0.5
392.635	-2.5
393.225	-0.5
393.816	1.5
394.407	-0.5
394.997	3.5
395.588	6.5
396.178	2.5
396.768	2.5
397.359	0.5
397.949	2.5
398.539	2.5
399.129	1.5
399.719	4.5
400.309	3.5
400.899	0.5
401.489	-3.5
402.079	0.5
402.668	4.5
403.258	3.5
403.848	6.5
404.437	1.5
405.027	0.5
405.616	2.5
406.206	4.5
406.795	1.5
407.384	4.5
407.973	0.5
408.563	6.5
409.152	2.5
409.741	1.5
410.33	4.5
410.919	4.5
411.508	4.5
412.096	3.5
412.685	5.5
413.274	8.5
413.862	5.5
414.451	7.5
415.039	5.5
415.628	7.5
416.216	9.5
416.805	8.5
417.393	12.5
417.981	11.5
418.569	12.5
419.157	14.5
419.745	9.5
420.333	11.5
420.921	19.5
421.509	12.5
422.097	16.5
422.685	14.5
423.272	20.5
423.86	24.5
424.447	25.5
425.035	25.5
425.622	28.5
426.21	30.5
426.797	26.5
427.384	32.5
427.972	32.5
428.559	35.5
429.146	39.5
429.733	37.5
430.32	36.5
430.907	45.5
431.494	52.5
432.08	53.5
432.667	57.5
433.254	62.5
433.84	64.5
434.427	66.5
435.013	72.5
435.6	87.5
436.186	93.5
436.772	92.5
437.359	103.5
437.945	112.5
438.531	128.5
439.117	139.5
439.703	147.5
440.289	163.5
440.875	154.5
441.461	191.5
442.047	206.5
442.632	211.5
443.218	234.5
443.804	248.5
444.389	257.5
444.975	279.5
445.56	302.5
446.145	328.5
446.731	343.5
447.316	364.5
447.901	399.5
448.486	431.5
449.071	448.5
449.656	502.5
450.241	533.5
450.826	576.5
451.411	626.5
451.996	658.5
452.58	705.5
453.165	757.5
453.75	805.5
454.334	874.5
454.919	924.5
455.503	1014.5
456.087	1097.5
456.672	1181.5
457.256	1260.5
457.84	1359.5
458.424	1470.5
459.008	1548.5
459.592	1643.5
460.176	1757.5
460.76	1839.5
461.344	1914.5
461.927	1990.5
462.511	2102.5
463.095	2153.5
463.678	2186.5
464.262	2179.5
464.845	2245.5
465.429	2194.5
466.012	2208.5
466.595	2171.5
467.178	2108.5
467.762	2068.5
468.345	2000.5
468.928	1885.5
469.511	1794.5
470.094	1676.5
470.676	1617.5
471.259	1506.5
471.842	1402.5
472.425	1286.5
473.007	1239.5
473.59	1146.5
474.172	1056.5
474.755	1019.5
475.337	914.5
475.919	887.5
476.502	816.5
477.084	779.5
477.666	742.5
478.248	695.5
478.83	661.5
479.412	648.5
479.994	602.5
480.576	571.5
481.157	553.5
481.739	505.5
482.321	482.5
482.902	469.5
483.484	439.5
484.065	412.5
484.647	395.5
485.228	371.5
485.809	343.5
486.391	318.5
486.972	311.5
487.553	294.5
488.134	270.5
488.715	254.5
489.296	230.5
489.877	217.5
490.458	215.5
491.038	192.5
491.619	171.5
492.2	165.5
492.78	161.5
493.361	155.5
493.941	150.5
494.522	146.5
495.102	139.5
495.682	131.5
496.262	115.5
496.843	119.5
497.423	113.5
498.003	109.5
498.583	112.5
499.163	105.5
499.742	99.5
500.322	96.5
500.902	103.5
501.482	98.5
502.061	87.5
502.641	87.5
503.22	91.5
503.8	82.5
504.379	87.5
504.958	85.5
505.538	85.5
506.117	79.5
506.696	74.5
507.275	78.5
507.854	80.5
508.433	84.5
509.012	69.5
509.591	76.5
510.169	82.5
510.748	85.5
511.327	84.5
511.905	89.5
512.484	94.5
513.062	96.5
513.641	95.5
514.219	102.5
514.797	113.5
515.375	112.5
515.954	114.5
516.532	124.5
517.11	128.5
517.688	138.5
518.266	144.5
518.843	157.5
519.421	153.5
519.999	169.5
520.577	173.5
521.154	200.5
521.732	189.5
522.309	197.5
522.887	211.5
523.464	221.5
524.041	238.5
524.619	238.5
525.196	246.5
525.773	256.5
526.35	260.5
526.927	281.5
527.504	271.5
528.081	262.5
528.658	286.5
529.235	287.5
529.811	295.5
530.388	293.5
530.964	286.5
531.541	310.5
532.117	299.5
532.694	304.5
533.27	303.5
533.846	301.5
534.423	297.5
534.999	291.5
535.575	299.5
536.151	306.5
536.727	304.5
537.303	296.5
537.879	294.5
538.455	297.5
539.03	293.5
539.606	289.5
540.182	282.5
540.757	290.5
541.333	273.5
541.908	277.5
542.483	270.5
543.059	271.5
543.634	265.5
544.209	282.5
544.784	252.5
545.359	269.5
545.934	254.5
546.509	260.5
547.084	259.5
547.659	254.5
548.234	258.5
548.808	251.5
549.383	240.5
549.958	248.5
550.532	241.5
551.107	246.5
551.681	250.5
552.255	240.5
552.83	229.5
553.404	250.5
553.978	244.5
554.552	236.5
555.126	239.5
555.7	236.5
556.274	244.5
556.848	234.5
557.422	238.5
557.995	246.5
558.569	245.5
559.143	253.5
559.716	244.5
560.29	249.5
560.863	253.5
561.437	249.5
562.01	251.5
562.583	268.5
563.156	262.5
563.729	271.5
564.302	268.5
564.875	281.5
565.448	281.5
566.021	283.5
566.594	296.5
567.167	290.5
567.74	280.5
568.312	302.5
568.885	287.5
569.457	311.5
570.03	311.5
570.602	293.5
571.174	316.5
571.747	305.5
572.319	307.5
572.891	301.5
573.463	308.5
574.035	294.5
574.607	303.5
575.179	310.5
575.751	305.5
576.323	311.5
576.894	302.5
577.466	313.5
578.038	299.5
578.609	302.5
579.181	301.5
579.752	301.5
580.323	310.5
580.895	311.5
581.466	310.5
582.037	304.5
582.608	306.5
583.179	298.5
583.75	307.5
584.321	302.5
584.892	314.5
585.463	316.5
586.033	310.5
586.604	326.5
587.175	318.5
587.745	317.5
588.316	320.5
588.886	314.5
589.457	327.5
590.027	316.5
590.597	315.5
591.167	299.5
591.737	322.5
592.308	308.5
592.878	316.5
593.447	310.5
594.017	304.5
594.587	309.5
595.157	304.5
595.727	320.5
596.296	294.5
596.866	302.5
597.435	296.5
598.005	309.5
598.574	296.5
599.143	286.5
599.713	295.5
600.282	286.5
600.851	300.5
601.42	288.5
601.989	291.5
602.558	279.5
603.127	274.5
603.696	278.5
604.265	282.5
604.833	283.5
605.402	286.5
605.971	282.5
606.539	267.5
607.108	277.5
607.676	284.5
608.244	279.5
608.813	282.5
609.381	274.5
609.949	266.5
610.517	271.5
611.085	275.5
611.653	284.5
612.221	269.5
612.789	274.5
613.357	260.5
613.924	265.5
614.492	278.5
615.06	276.5
615.627	260.5
616.195	261.5
616.762	266.5
617.329	259.5
617.897	263.5
618.464	259.5
619.031	271.5
619.598	257.5
620.165	267.5
620.732	249.5
621.299	260.5
621.866	269.5
622.433	264.5
623	273.5
623.566	261.5
624.133	255.5
624.7	245.5
625.266	263.5
625.832	257.5
626.399	251.5
626.965	245.5
627.531	240.5
628.098	247.5
628.664	247.5
629.23	237.5
629.796	252.5
630.362	246.5
630.928	237.5
631.493	247.5
632.059	243.5
632.625	229.5
633.19	244.5
633.756	227.5
634.322	230.5
634.887	231.5
635.452	225.5
636.018	225.5
636.583	220.5
637.148	224.5
637.713	228.5
638.278	206.5
638.843	219.5
639.408	219.5
639.973	217.5
640.538	224.5
641.103	209.5
641.667	219.5
642.232	213.5
642.797	201.5
643.361	212.5
643.926	204.5
644.49	198.5
645.054	205.5
645.619	203.5
646.183	211.5
646.747	192.5
647.311	198.5
647.875	200.5
648.439	198.5
649.003	199.5
649.567	187.5
650.131	188.5
650.694	192.5
651.258	191.5
651.822	190.5
652.385	176.5
652.949	187.5
653.512	179.5
654.075	176.5
654.639	163.5
655.202	168.5
655.765	167.5
656.328	157.5
656.891	176.5
657.454	173.5
658.017	172.5
658.58	168.5
659.143	162.5
659.705	158.5
660.268	156.5
660.83	153.5
661.393	162.5
661.955	150.5
662.518	150.5
663.08	150.5
663.643	152.5
664.205	153.5
664.767	150.5
665.329	144.5
665.891	140.5
666.453	150.5
667.015	146.5
667.577	140.5
668.139	134.5
668.7	148.5
669.262	136.5
669.824	140.5
670.385	125.5
670.947	132.5
671.508	131.5
672.069	133.5
672.631	124.5
673.192	128.5
673.753	128.5
674.314	119.5
674.875	117.5
675.436	128.5
675.997	121.5
676.558	121.5
677.119	117.5
677.679	118.5
678.24	119.5
678.801	121.5
679.361	128.5
679.922	123.5
680.482	117.5
681.042	119.5
681.603	122.5
682.163	127.5
682.723	113.5
683.283	114.5
683.843	119.5
684.403	113.5
684.963	116.5
685.523	110.5
686.083	108.5
686.642	100.5
687.202	107.5
687.762	105.5
688.321	97.5
688.881	96.5
689.44	93.5
690	97.5
690.559	101.5
691.118	102.5
691.677	100.5
692.236	97.5
692.795	88.5
693.354	97.5
693.913	96.5
694.472	87.5
695.031	99.5
695.59	88.5
696.148	85.5
696.707	82.5
697.265	77.5
697.824	82.5
698.382	77.5
698.941	77.5
699.499	81.5
700.057	86.5
700.615	76.5
701.173	82.5
701.731	81.5
702.289	67.5
702.847	67.5
703.405	76.5
703.963	75.5
704.521	74.5
705.078	69.5
705.636	72.5
706.194	70.5
706.751	68.5
707.308	61.5
707.866	68.5
708.423	66.5
708.98	68.5
709.537	63.5
710.095	60.5
710.652	60.5
711.209	69.5
711.765	62.5
712.322	64.5
712.879	59.5
713.436	58.5
713.992	53.5
714.549	60.5
715.106	51.5
715.662	58.5
716.218	49.5
716.775	59.5
717.331	52.5
717.887	52.5
718.443	47.5
719	51.5
719.556	50.5
720.112	46.5
720.667	47.5
721.223	50.5
721.779	51.5
722.335	45.5
722.89	50.5
723.446	51.5
724.002	45.5
724.557	42.5
725.112	44.5
725.668	40.5
726.223	41.5
726.778	41.5
727.333	46.5
727.888	44.5
728.443	42.5
728.998	40.5
729.553	36.5
730.108	39.5
730.663	33.5
731.218	39.5
731.772	34.5
732.327	39.5
732.881	37.5
733.436	33.5
733.99	31.5
734.545	41.5
735.099	34.5
735.653	32.5
736.207	38.5
736.761	34.5
737.315	30.5
737.869	31.5
738.423	36.5
738.977	30.5
739.531	28.5
740.084	34.5
740.638	33.5
741.192	30.5
741.745	33.5
742.299	28.5
742.852	32.5
743.405	32.5
743.959	27.5
744.512	27.5
745.065	30.5
745.618	24.5
746.171	32.5
746.724	28.5
747.277	26.5
747.83	28.5
748.382	28.5
748.935	26.5
749.488	28.5
750.04	28.5
750.593	26.5
751.145	23.5
751.698	21.5
752.25	24.5
752.802	25.5
753.354	24.5
753.906	22.5
754.458	21.5
755.01	19.5
755.562	21.5
756.114	17.5
756.666	23.5
757.218	20.5
757.769	22.5
758.321	19.5
758.873	19.5
759.424	18.5
759.975	21.5
760.527	22.5
761.078	17.5
761.629	18.5
762.181	20.5
762.732	21.5
763.283	23.5
763.834	18.5
764.385	15.5
764.935	18.5
765.486	18.5
766.037	16.5
766.588	17.5
767.138	19.5
767.689	14.5
768.239	11.5
768.79	17.5
769.34	17.5
769.89	9.5
770.44	18.5
770.991	12.5
771.541	15.5
772.091	13.5
772.641	13.5
773.191	17.5
773.74	17.5
774.29	13.5
774.84	14.5
775.39	15.5
775.939	16.5
776.489	16.5
777.038	16.5
777.588	13.5
778.137	14.5
778.686	13.5
779.235	14.5
779.784	17.5
780.334	11.5
780.883	11.5
781.431	7.5
781.98	12.5
782.529	12.5
783.078	14.5
783.627	13.5
784.175	13.5
784.724	9.5
785.272	13.5
785.821	13.5
786.369	15.5
786.917	16.5
787.466	11.5
788.014	10.5
788.562	14.5
789.11	8.5
789.658	8.5
790.206	13.5
790.754	9.5
791.302	8.5
791.849	10.5
792.397	9.5
792.945	12.5
793.492	11.5
794.04	9.5
794.587	6.5
795.134	9.5
795.682	9.5
796.229	8.5
796.776	5.5
797.323	6.5
797.87	8.5
798.417	10.5
798.964	6.5
799.511	6.5
800.058	7.5
800.604	4.5
801.151	4.5
801.698	4.5
802.244	7.5
802.791	10.5
803.337	8.5
803.883	7.5
804.43	5.5
804.976	4.5
805.522	5.5
806.068	7.5
806.614	5.5
807.16	6.5
807.706	6.5
808.252	7.5
808.797	3.5
809.343	0.5
809.889	7.5
810.434	6.5
810.98	6.5
811.525	5.5
812.071	9.5
812.616	7.5
813.161	3.5
813.706	4.5
814.252	4.5
814.797	4.5
815.342	9.5
815.886	4.5
816.431	3.5
816.976	3.5
817.521	5.5
818.066	6.5
818.61	7.5
819.155	6.5
819.699	3.5
820.244	3.5
820.788	3.5
821.332	3.5
821.876	6.5
822.421	3.5
822.965	3.5
823.509	2.5
824.053	3.5
824.597	2.5
825.14	3.5
825.684	4.5
826.228	5.5
826.771	7.5
827.315	5.5
827.859	5.5
828.402	5.5
828.945	-0.5
829.489	1.5
830.032	0.5
830.575	4.5
831.118	3.5
831.661	3.5
832.204	5.5
832.747	6.5
833.29	2.5
833.833	2.5
834.376	1.5
834.918	3.5
835.461	1.5
836.004	7.5
836.546	3.5
837.088	2.5
837.631	0.5
838.173	0.5
838.715	1.5
839.257	2.5
839.8	1.5
840.342	4.5
840.884	0.5
841.425	-2.5
841.967	3.5
842.509	3.5
843.051	3.5
843.592	-0.5
844.134	2.5
844.676	2.5
845.217	4.5
845.758	2.5
846.3	2.5
846.841	4.5
847.382	3.5
847.923	0.5
848.464	1.5
849.005	4.5
849.546	0.5
850.087	2.5
850.628	2.5
851.169	0.5
851.709	-0.5
852.25	5.5
852.791	6.5
853.331	4.5
853.871	4.5
854.412	3.5
854.952	0.5
855.492	0.5
856.033	3.5
856.573	6.5
857.113	2.5
857.653	1.5
858.193	1.5
858.732	3.5
859.272	1.5
859.812	1.5
860.352	2.5
860.891	2.5
861.431	1.5
861.97	1.5
862.509	1.5
863.049	-1.5
863.588	2.5
864.127	-2.5
864.666	1.5
865.205	3.5
865.744	-0.5
866.283	3.5
866.822	4.5
867.361	-3.5
867.9	0.5
868.438	1.5
868.977	2.5
869.516	0.5
870.054	1.5
870.593	0.5
871.131	-0.5
871.669	-1.5
872.207	3.5
872.746	5.5
873.284	3.5
873.822	-0.5
874.36	3.5
874.898	-0.5
875.435	1.5
875.973	-1.5
876.511	3.5
877.048	-2.5
877.586	1.5
878.124	1.5
878.661	0.5
879.198	-1.5
879.736	1.5
880.273	-0.5
880.81	2.5
881.347	-1.5
881.884	-4.5
882.421	1.5
882.958	3.5
883.495	1.5
884.032	0.5
884.569	2.5
885.105	-0.5
885.642	0.5
886.178	-1.5
886.715	1.5
887.251	2.5
887.788	-0.5
888.324	0.5
888.86	2.5
889.396	1.5
889.932	0.5
890.468	3.5
891.004	1.5
891.54	2.5
892.076	1.5
892.612	-0.5
893.147	2.5
893.683	0.5
894.219	4.5
894.754	-0.5
895.29	-4.5
895.825	1.5
896.36	-1.5
896.896	-1.5
897.431	1.5
897.966	2.5
898.501	3.5
899.036	-0.5
899.571	1.5
900.106	-1.5
900.64	-1.5
901.175	0.5
901.71	-1.5
902.244	0.5
902.779	2.5
903.313	-2.5
903.848	0.5
904.382	2.5
904.916	0.5
905.45	3.5
905.985	2.5
906.519	1.5
907.053	-1.5
907.587	-2.5
908.12	2.5
908.654	-0.5
909.188	0.5
909.722	4.5
910.255	-0.5
910.789	2.5
911.322	3.5
911.856	0.5
912.389	0.5
912.922	2.5
913.456	-1.5
913.989	0.5
914.522	1.5
915.055	0.5
915.588	-2.5
916.121	0.5
916.653	-1.5
917.186	1.5
917.719	2.5
918.252	4.5
918.784	-0.5
919.317	-3.5
919.849	-3.5
920.381	-0.5
920.914	-0.5
921.446	0.5
921.978	-1.5
922.51	-0.5
923.042	-1.5
923.574	5.5
924.106	1.5
924.638	3.5
925.17	-1.5
925.701	-0.5
926.233	-2.5
926.765	1.5
927.296	0.5
927.828	1.5
928.359	-2.5
928.89	0.5
929.422	-0.5
929.953	1.5
930.484	2.5
931.015	-2.5
931.546	0.5
932.077	2.5
932.608	-0.5
933.138	3.5
933.669	-2.5
934.2	-3.5
934.73	-3.5
935.261	-2.5
