Data from LOOPyPMA-1_QEP046991__10__18-11-19-757.txt Node

Date: Sun May 11 18:11:19 CEST 2025
User: superuser
Spectrometer: QEP04699
Trigger mode: 4
Integration Time (sec): 1.000000E-1
Scans to average: 1
Electric dark correction enabled: true
Nonlinearity correction enabled: false
Boxcar width: 0
XAxis mode: Wavelengths
Number of Pixels in Spectrum: 1044
>>>>>Begin Spectral Data<<<<<
347.57	11.88
348.165	-1.12
348.76	1.88
349.355	-1.12
349.95	-2.12
350.545	-1.12
351.14	-5.12
351.735	-3.12
352.33	-5.12
352.924	-0.12
353.519	2.88
354.114	1.88
354.708	3.88
355.303	-2.12
355.897	-4.12
356.491	-2.12
357.086	1.88
357.68	0.88
358.274	-2.12
358.868	-1.12
359.462	-2.12
360.056	-2.12
360.65	-1.12
361.244	0.88
361.838	0.88
362.431	-0.12
363.025	-3.12
363.619	-4.12
364.212	-2.12
364.806	-1.12
365.399	-0.12
365.993	-2.12
366.586	1.88
367.179	-0.12
367.772	-3.12
368.366	-3.12
368.959	2.88
369.552	-1.12
370.145	1.88
370.738	1.88
371.331	1.88
371.923	-1.12
372.516	0.88
373.109	-0.12
373.701	0.88
374.294	0.88
374.887	-0.12
375.479	0.88
376.071	-2.12
376.664	-1.12
377.256	1.88
377.848	-2.12
378.44	-5.12
379.033	-3.12
379.625	-2.12
380.217	5.88
380.808	-3.12
381.4	1.88
381.992	-2.12
382.584	0.88
383.176	-0.12
383.767	-0.12
384.359	2.88
384.95	0.88
385.542	-2.12
386.133	2.88
386.725	-3.12
387.316	1.88
387.907	1.88
388.498	2.88
389.089	-0.12
389.68	-3.12
390.271	-2.12
390.862	0.88
391.453	-2.12
392.044	-1.12
392.635	3.88
393.225	1.88
393.816	0.88
394.407	-1.12
394.997	-0.12
395.588	3.88
396.178	4.88
396.768	-0.12
397.359	-0.12
397.949	5.88
398.539	0.88
399.129	2.88
399.719	2.88
400.309	0.88
400.899	-3.12
401.489	-0.12
402.079	2.88
402.668	2.88
403.258	2.88
403.848	4.88
404.437	2.88
405.027	-0.12
405.616	0.88
406.206	1.88
406.795	4.88
407.384	-0.12
407.973	0.88
408.563	2.88
409.152	0.88
409.741	3.88
410.33	7.88
410.919	4.88
411.508	3.88
412.096	1.88
412.685	5.88
413.274	4.88
413.862	3.88
414.451	5.88
415.039	7.88
415.628	2.88
416.216	5.88
416.805	9.88
417.393	6.88
417.981	6.88
418.569	9.88
419.157	9.88
419.745	8.88
420.333	14.88
420.921	15.88
421.509	15.88
422.097	17.88
422.685	15.88
423.272	18.88
423.86	19.88
424.447	18.88
425.035	18.88
425.622	25.88
426.21	24.88
426.797	23.88
427.384	24.88
427.972	35.88
428.559	32.88
429.146	35.88
429.733	37.88
430.32	48.88
430.907	45.88
431.494	47.88
432.08	51.88
432.667	59.88
433.254	64.88
433.84	69.88
434.427	71.88
435.013	81.88
435.6	83.88
436.186	90.88
436.772	96.88
437.359	98.88
437.945	113.88
438.531	119.88
439.117	127.88
439.703	141.88
440.289	159.88
440.875	168.88
441.461	182.88
442.047	188.88
442.632	212.88
443.218	229.88
443.804	246.88
444.389	272.88
444.975	279.88
445.56	306.88
446.145	316.88
446.731	342.88
447.316	374.88
447.901	415.88
448.486	442.88
449.071	465.88
449.656	506.88
450.241	528.88
450.826	587.88
451.411	602.88
451.996	654.88
452.58	703.88
453.165	755.88
453.75	822.88
454.334	881.88
454.919	945.88
455.503	994.88
456.087	1118.88
456.672	1174.88
457.256	1268.88
457.84	1374.88
458.424	1473.88
459.008	1531.88
459.592	1660.88
460.176	1730.88
460.76	1815.88
461.344	1916.88
461.927	2024.88
462.511	2095.88
463.095	2133.88
463.678	2158.88
464.262	2227.88
464.845	2222.88
465.429	2235.88
466.012	2224.88
466.595	2170.88
467.178	2093.88
467.762	2048.88
468.345	1970.88
468.928	1900.88
469.511	1807.88
470.094	1685.88
470.676	1582.88
471.259	1481.88
471.842	1396.88
472.425	1272.88
473.007	1213.88
473.59	1143.88
474.172	1069.88
474.755	997.88
475.337	908.88
475.919	878.88
476.502	833.88
477.084	750.88
477.666	719.88
478.248	704.88
478.83	657.88
479.412	636.88
479.994	591.88
480.576	557.88
481.157	527.88
481.739	492.88
482.321	496.88
482.902	461.88
483.484	430.88
484.065	411.88
484.647	381.88
485.228	366.88
485.809	341.88
486.391	320.88
486.972	284.88
487.553	283.88
488.134	253.88
488.715	245.88
489.296	230.88
489.877	209.88
490.458	206.88
491.038	182.88
491.619	182.88
492.2	164.88
492.78	156.88
493.361	158.88
493.941	142.88
494.522	150.88
495.102	139.88
495.682	126.88
496.262	120.88
496.843	112.88
497.423	113.88
498.003	115.88
498.583	103.88
499.163	102.88
499.742	106.88
500.322	104.88
500.902	100.88
501.482	86.88
502.061	90.88
502.641	89.88
503.22	89.88
503.8	85.88
504.379	85.88
504.958	89.88
505.538	84.88
506.117	80.88
506.696	78.88
507.275	81.88
507.854	78.88
508.433	82.88
509.012	87.88
509.591	78.88
510.169	83.88
510.748	87.88
511.327	87.88
511.905	88.88
512.484	88.88
513.062	95.88
513.641	96.88
514.219	107.88
514.797	105.88
515.375	113.88
515.954	119.88
516.532	133.88
517.11	127.88
517.688	145.88
518.266	152.88
518.843	164.88
519.421	166.88
519.999	174.88
520.577	186.88
521.154	193.88
521.732	206.88
522.309	227.88
522.887	213.88
523.464	235.88
524.041	241.88
524.619	242.88
525.196	271.88
525.773	266.88
526.35	281.88
526.927	272.88
527.504	282.88
528.081	303.88
528.658	292.88
529.235	313.88
529.811	312.88
530.388	302.88
530.964	307.88
531.541	301.88
532.117	314.88
532.694	306.88
533.27	304.88
533.846	294.88
534.423	310.88
534.999	310.88
535.575	307.88
536.151	299.88
536.727	313.88
537.303	306.88
537.879	304.88
538.455	303.88
539.03	300.88
539.606	305.88
540.182	300.88
540.757	304.88
541.333	300.88
541.908	307.88
542.483	292.88
543.059	301.88
543.634	291.88
544.209	290.88
544.784	270.88
545.359	276.88
545.934	281.88
546.509	268.88
547.084	268.88
547.659	259.88
548.234	258.88
548.808	270.88
549.383	253.88
549.958	257.88
550.532	257.88
551.107	250.88
551.681	263.88
552.255	262.88
552.83	258.88
553.404	252.88
553.978	249.88
554.552	239.88
555.126	251.88
555.7	253.88
556.274	258.88
556.848	257.88
557.422	253.88
557.995	259.88
558.569	259.88
559.143	269.88
559.716	266.88
560.29	256.88
560.863	269.88
561.437	277.88
562.01	280.88
562.583	274.88
563.156	285.88
563.729	290.88
564.302	298.88
564.875	296.88
565.448	292.88
566.021	311.88
566.594	306.88
567.167	307.88
567.74	298.88
568.312	307.88
568.885	306.88
569.457	310.88
570.03	312.88
570.602	312.88
571.174	314.88
571.747	317.88
572.319	322.88
572.891	327.88
573.463	318.88
574.035	324.88
574.607	318.88
575.179	316.88
575.751	319.88
576.323	305.88
576.894	323.88
577.466	325.88
578.038	326.88
578.609	322.88
579.181	315.88
579.752	322.88
580.323	324.88
580.895	323.88
581.466	323.88
582.037	324.88
582.608	327.88
583.179	327.88
583.75	329.88
584.321	335.88
584.892	323.88
585.463	330.88
586.033	331.88
586.604	346.88
587.175	322.88
587.745	337.88
588.316	342.88
588.886	346.88
589.457	331.88
590.027	332.88
590.597	339.88
591.167	328.88
591.737	339.88
592.308	337.88
592.878	314.88
593.447	330.88
594.017	324.88
594.587	327.88
595.157	330.88
595.727	328.88
596.296	319.88
596.866	321.88
597.435	324.88
598.005	309.88
598.574	306.88
599.143	304.88
599.713	317.88
600.282	297.88
600.851	303.88
601.42	295.88
601.989	302.88
602.558	299.88
603.127	299.88
603.696	295.88
604.265	288.88
604.833	310.88
605.402	302.88
605.971	296.88
606.539	302.88
607.108	281.88
607.676	301.88
608.244	293.88
608.813	306.88
609.381	286.88
609.949	300.88
610.517	295.88
611.085	288.88
611.653	288.88
612.221	283.88
612.789	284.88
613.357	286.88
613.924	278.88
614.492	284.88
615.06	282.88
615.627	278.88
616.195	284.88
616.762	285.88
617.329	280.88
617.897	275.88
618.464	288.88
619.031	278.88
619.598	287.88
620.165	263.88
620.732	267.88
621.299	272.88
621.866	275.88
622.433	278.88
623	272.88
623.566	274.88
624.133	265.88
624.7	267.88
625.266	263.88
625.832	263.88
626.399	270.88
626.965	264.88
627.531	253.88
628.098	265.88
628.664	257.88
629.23	248.88
629.796	267.88
630.362	255.88
630.928	267.88
631.493	253.88
632.059	254.88
632.625	257.88
633.19	253.88
633.756	256.88
634.322	247.88
634.887	250.88
635.452	245.88
636.018	241.88
636.583	239.88
637.148	233.88
637.713	236.88
638.278	235.88
638.843	231.88
639.408	226.88
639.973	224.88
640.538	230.88
641.103	219.88
641.667	225.88
642.232	215.88
642.797	212.88
643.361	226.88
643.926	220.88
644.49	217.88
645.054	210.88
645.619	218.88
646.183	207.88
646.747	195.88
647.311	216.88
647.875	206.88
648.439	200.88
649.003	205.88
649.567	200.88
650.131	193.88
650.694	197.88
651.258	190.88
651.822	197.88
652.385	193.88
652.949	187.88
653.512	184.88
654.075	195.88
654.639	187.88
655.202	179.88
655.765	186.88
656.328	179.88
656.891	181.88
657.454	181.88
658.017	174.88
658.58	175.88
659.143	167.88
659.705	169.88
660.268	173.88
660.83	157.88
661.393	167.88
661.955	168.88
662.518	153.88
663.08	152.88
663.643	154.88
664.205	154.88
664.767	147.88
665.329	154.88
665.891	158.88
666.453	150.88
667.015	145.88
667.577	152.88
668.139	142.88
668.7	152.88
669.262	138.88
669.824	143.88
670.385	135.88
670.947	137.88
671.508	136.88
672.069	129.88
672.631	132.88
673.192	134.88
673.753	135.88
674.314	132.88
674.875	125.88
675.436	138.88
675.997	134.88
676.558	132.88
677.119	121.88
677.679	126.88
678.24	133.88
678.801	126.88
679.361	126.88
679.922	128.88
680.482	118.88
681.042	126.88
681.603	119.88
682.163	124.88
682.723	123.88
683.283	125.88
683.843	113.88
684.403	113.88
684.963	122.88
685.523	116.88
686.083	113.88
686.642	105.88
687.202	105.88
687.762	110.88
688.321	113.88
688.881	105.88
689.44	100.88
690	106.88
690.559	93.88
691.118	105.88
691.677	99.88
692.236	104.88
692.795	99.88
693.354	95.88
693.913	97.88
694.472	89.88
695.031	96.88
695.59	91.88
696.148	87.88
696.707	89.88
697.265	94.88
697.824	83.88
698.382	84.88
698.941	81.88
699.499	76.88
700.057	81.88
700.615	79.88
701.173	79.88
701.731	80.88
702.289	81.88
702.847	74.88
703.405	73.88
703.963	75.88
704.521	82.88
705.078	71.88
705.636	72.88
706.194	70.88
706.751	72.88
707.308	65.88
707.866	69.88
708.423	68.88
708.98	60.88
709.537	61.88
710.095	60.88
710.652	65.88
711.209	74.88
711.765	64.88
712.322	59.88
712.879	63.88
713.436	63.88
713.992	62.88
714.549	65.88
715.106	53.88
715.662	59.88
716.218	60.88
716.775	53.88
717.331	57.88
717.887	50.88
718.443	48.88
719	49.88
719.556	51.88
720.112	45.88
720.667	50.88
721.223	51.88
721.779	44.88
722.335	42.88
722.89	47.88
723.446	49.88
724.002	44.88
724.557	44.88
725.112	42.88
725.668	47.88
726.223	40.88
726.778	40.88
727.333	48.88
727.888	35.88
728.443	40.88
728.998	39.88
729.553	45.88
730.108	37.88
730.663	38.88
731.218	42.88
731.772	36.88
732.327	36.88
732.881	27.88
733.436	39.88
733.99	36.88
734.545	39.88
735.099	41.88
735.653	38.88
736.207	42.88
736.761	28.88
737.315	37.88
737.869	35.88
738.423	34.88
738.977	35.88
739.531	35.88
740.084	31.88
740.638	29.88
741.192	36.88
741.745	33.88
742.299	28.88
742.852	26.88
743.405	29.88
743.959	32.88
744.512	25.88
745.065	30.88
745.618	23.88
746.171	26.88
746.724	29.88
747.277	26.88
747.83	26.88
748.382	26.88
748.935	32.88
749.488	25.88
750.04	27.88
750.593	25.88
751.145	27.88
751.698	19.88
752.25	23.88
752.802	20.88
753.354	20.88
753.906	28.88
754.458	17.88
755.01	22.88
755.562	21.88
756.114	25.88
756.666	23.88
757.218	19.88
757.769	19.88
758.321	18.88
758.873	21.88
759.424	20.88
759.975	16.88
760.527	18.88
761.078	15.88
761.629	19.88
762.181	17.88
762.732	21.88
763.283	18.88
763.834	18.88
764.385	14.88
764.935	16.88
765.486	14.88
766.037	18.88
766.588	8.88
767.138	14.88
767.689	16.88
768.239	17.88
768.79	17.88
769.34	12.88
769.89	14.88
770.44	15.88
770.991	13.88
771.541	15.88
772.091	12.88
772.641	15.88
773.191	17.88
773.74	17.88
774.29	20.88
774.84	17.88
775.39	12.88
775.939	15.88
776.489	11.88
777.038	13.88
777.588	13.88
778.137	9.88
778.686	13.88
779.235	10.88
779.784	11.88
780.334	8.88
780.883	10.88
781.431	10.88
781.98	11.88
782.529	11.88
783.078	15.88
783.627	10.88
784.175	15.88
784.724	8.88
785.272	10.88
785.821	5.88
786.369	10.88
786.917	10.88
787.466	12.88
788.014	13.88
788.562	14.88
789.11	10.88
789.658	8.88
790.206	16.88
790.754	8.88
791.302	10.88
791.849	5.88
792.397	7.88
792.945	12.88
793.492	7.88
794.04	10.88
794.587	10.88
795.134	6.88
795.682	11.88
796.229	8.88
796.776	9.88
797.323	8.88
797.87	8.88
798.417	7.88
798.964	13.88
799.511	6.88
800.058	11.88
800.604	6.88
801.151	11.88
801.698	5.88
802.244	6.88
802.791	9.88
803.337	10.88
803.883	8.88
804.43	5.88
804.976	3.88
805.522	6.88
806.068	6.88
806.614	11.88
807.16	8.88
807.706	7.88
808.252	8.88
808.797	4.88
809.343	4.88
809.889	8.88
810.434	5.88
810.98	3.88
811.525	3.88
812.071	1.88
812.616	2.88
813.161	4.88
813.706	6.88
814.252	6.88
814.797	5.88
815.342	2.88
815.886	3.88
816.431	3.88
816.976	8.88
817.521	9.88
818.066	3.88
818.61	7.88
819.155	7.88
819.699	2.88
820.244	2.88
820.788	6.88
821.332	3.88
821.876	0.88
822.421	3.88
822.965	4.88
823.509	1.88
824.053	8.88
824.597	2.88
825.14	6.88
825.684	2.88
826.228	1.88
826.771	0.88
827.315	6.88
827.859	-1.12
828.402	1.88
828.945	6.88
829.489	5.88
830.032	0.88
830.575	3.88
831.118	2.88
831.661	3.88
832.204	0.88
832.747	5.88
833.29	-1.12
833.833	4.88
834.376	3.88
834.918	1.88
835.461	1.88
836.004	3.88
836.546	4.88
837.088	-0.12
837.631	8.88
838.173	1.88
838.715	3.88
839.257	4.88
839.8	5.88
840.342	3.88
840.884	4.88
841.425	6.88
841.967	-3.12
842.509	0.88
843.051	1.88
843.592	-0.12
844.134	1.88
844.676	-1.12
845.217	-2.12
845.758	3.88
846.3	0.88
846.841	0.88
847.382	0.88
847.923	1.88
848.464	-1.12
849.005	2.88
849.546	0.88
850.087	-0.12
850.628	-3.12
851.169	3.88
851.709	-0.12
852.25	3.88
852.791	1.88
853.331	0.88
853.871	0.88
854.412	-0.12
854.952	2.88
855.492	0.88
856.033	-2.12
856.573	-3.12
857.113	1.88
857.653	4.88
858.193	-4.12
858.732	0.88
859.272	-1.12
859.812	0.88
860.352	-0.12
860.891	4.88
861.431	2.88
861.97	-2.12
862.509	-1.12
863.049	-0.12
863.588	-0.12
864.127	2.88
864.666	-2.12
865.205	2.88
865.744	1.88
866.283	-1.12
866.822	-0.12
867.361	-4.12
867.9	0.88
868.438	-0.12
868.977	-0.12
869.516	4.88
870.054	1.88
870.593	1.88
871.131	0.88
871.669	1.88
872.207	0.88
872.746	-0.12
873.284	-1.12
873.822	0.88
874.36	1.88
874.898	0.88
875.435	1.88
875.973	1.88
876.511	-0.12
877.048	-2.12
877.586	0.88
878.124	0.88
878.661	-2.12
879.198	0.88
879.736	0.88
880.273	2.88
880.81	-0.12
881.347	2.88
881.884	0.88
882.421	-0.12
882.958	2.88
883.495	-0.12
884.032	1.88
884.569	0.88
885.105	-0.12
885.642	-1.12
886.178	1.88
886.715	0.88
887.251	-0.12
887.788	0.88
888.324	-3.12
888.86	-3.12
889.396	-1.12
889.932	-1.12
890.468	2.88
891.004	-2.12
891.54	-1.12
892.076	-1.12
892.612	-1.12
893.147	-4.12
893.683	1.88
894.219	0.88
894.754	-3.12
895.29	-0.12
895.825	-2.12
896.36	-1.12
896.896	-2.12
897.431	-2.12
897.966	-2.12
898.501	-1.12
899.036	-1.12
899.571	-0.12
900.106	1.88
900.64	0.88
901.175	0.88
901.71	-1.12
902.244	-1.12
902.779	-0.12
903.313	-0.12
903.848	-0.12
904.382	1.88
904.916	-2.12
905.45	2.88
905.985	0.88
906.519	0.88
907.053	-5.12
907.587	-2.12
908.12	-0.12
908.654	-3.12
909.188	-1.12
909.722	-0.12
910.255	-1.12
910.789	1.88
911.322	1.88
911.856	-0.12
912.389	-2.12
912.922	-1.12
913.456	-0.12
913.989	0.88
914.522	-0.12
915.055	-3.12
915.588	0.88
916.121	-1.12
916.653	-2.12
917.186	-0.12
917.719	-1.12
918.252	-2.12
918.784	-0.12
919.317	-0.12
919.849	0.88
920.381	-0.12
920.914	-0.12
921.446	-2.12
921.978	3.88
922.51	-1.12
923.042	-0.12
923.574	2.88
924.106	1.88
924.638	-1.12
925.17	-0.12
925.701	-6.12
926.233	0.88
926.765	-1.12
927.296	0.88
927.828	0.88
928.359	1.88
928.89	-0.12
929.422	-1.12
929.953	2.88
930.484	-2.12
931.015	-0.12
931.546	-0.12
932.077	-0.12
932.608	0.88
933.138	-1.12
933.669	-3.12
934.2	-2.12
934.73	-2.12
935.261	-4.12
