Data from LOOPyPMA-1_QEP046991__40__18-11-49-758.txt Node

Date: Sun May 11 18:11:49 CEST 2025
User: superuser
Spectrometer: QEP04699
Trigger mode: 4
Integration Time (sec): 1.000000E-1
Scans to average: 1
Electric dark correction enabled: true
Nonlinearity correction enabled: false
Boxcar width: 0
XAxis mode: Wavelengths
Number of Pixels in Spectrum: 1044
>>>>>Begin Spectral Data<<<<<
347.57	8.62
348.165	-1.38
348.76	-3.38
349.355	-2.38
349.95	1.62
350.545	-3.38
351.14	1.62
351.735	2.62
352.33	-1.38
352.924	0.62
353.519	4.62
354.114	-0.38
354.708	4.62
355.303	2.62
355.897	1.62
356.491	0.62
357.086	-2.38
357.68	0.62
358.274	1.62
358.868	4.62
359.462	2.62
360.056	-0.38
360.65	1.62
361.244	0.62
361.838	3.62
362.431	1.62
363.025	-0.38
363.619	2.62
364.212	4.62
364.806	-1.38
365.399	2.62
365.993	1.62
366.586	2.62
367.179	0.62
367.772	1.62
368.366	0.62
368.959	0.62
369.552	3.62
370.145	-2.38
370.738	2.62
371.331	3.62
371.923	-0.38
372.516	1.62
373.109	0.62
373.701	3.62
374.294	-0.38
374.887	3.62
375.479	0.62
376.071	1.62
376.664	0.62
377.256	3.62
377.848	1.62
378.44	2.62
379.033	-0.38
379.625	1.62
380.217	-2.38
380.808	-0.38
381.4	0.62
381.992	1.62
382.584	0.62
383.176	-0.38
383.767	2.62
384.359	-0.38
384.95	-0.38
385.542	0.62
386.133	-0.38
386.725	1.62
387.316	2.62
387.907	3.62
388.498	-0.38
389.089	3.62
389.68	3.62
390.271	-0.38
390.862	3.62
391.453	-0.38
392.044	-0.38
392.635	3.62
393.225	-0.38
393.816	0.62
394.407	2.62
394.997	1.62
395.588	-3.38
396.178	1.62
396.768	0.62
397.359	1.62
397.949	1.62
398.539	1.62
399.129	0.62
399.719	0.62
400.309	4.62
400.899	3.62
401.489	7.62
402.079	4.62
402.668	2.62
403.258	-1.38
403.848	-0.38
404.437	8.62
405.027	0.62
405.616	4.62
406.206	3.62
406.795	6.62
407.384	4.62
407.973	1.62
408.563	6.62
409.152	2.62
409.741	6.62
410.33	4.62
410.919	9.62
411.508	8.62
412.096	7.62
412.685	5.62
413.274	8.62
413.862	6.62
414.451	3.62
415.039	10.62
415.628	7.62
416.216	8.62
416.805	13.62
417.393	13.62
417.981	8.62
418.569	11.62
419.157	11.62
419.745	15.62
420.333	13.62
420.921	13.62
421.509	13.62
422.097	17.62
422.685	20.62
423.272	19.62
423.86	20.62
424.447	20.62
425.035	25.62
425.622	17.62
426.21	26.62
426.797	26.62
427.384	28.62
427.972	35.62
428.559	37.62
429.146	36.62
429.733	40.62
430.32	45.62
430.907	51.62
431.494	47.62
432.08	53.62
432.667	60.62
433.254	57.62
433.84	71.62
434.427	75.62
435.013	81.62
435.6	86.62
436.186	87.62
436.772	101.62
437.359	105.62
437.945	112.62
438.531	123.62
439.117	132.62
439.703	151.62
440.289	162.62
440.875	169.62
441.461	194.62
442.047	196.62
442.632	214.62
443.218	223.62
443.804	250.62
444.389	268.62
444.975	295.62
445.56	314.62
446.145	319.62
446.731	356.62
447.316	373.62
447.901	406.62
448.486	438.62
449.071	467.62
449.656	489.62
450.241	529.62
450.826	578.62
451.411	614.62
451.996	672.62
452.58	737.62
453.165	773.62
453.75	828.62
454.334	883.62
454.919	975.62
455.503	1033.62
456.087	1119.62
456.672	1213.62
457.256	1301.62
457.84	1386.62
458.424	1483.62
459.008	1594.62
459.592	1705.62
460.176	1815.62
460.76	1890.62
461.344	1991.62
461.927	2057.62
462.511	2133.62
463.095	2179.62
463.678	2257.62
464.262	2278.62
464.845	2273.62
465.429	2302.62
466.012	2254.62
466.595	2267.62
467.178	2162.62
467.762	2109.62
468.345	2048.62
468.928	1957.62
469.511	1865.62
470.094	1776.62
470.676	1638.62
471.259	1512.62
471.842	1440.62
472.425	1382.62
473.007	1268.62
473.59	1193.62
474.172	1137.62
474.755	1020.62
475.337	995.62
475.919	932.62
476.502	864.62
477.084	811.62
477.666	773.62
478.248	721.62
478.83	685.62
479.412	662.62
479.994	616.62
480.576	609.62
481.157	568.62
481.739	526.62
482.321	504.62
482.902	490.62
483.484	460.62
484.065	422.62
484.647	406.62
485.228	379.62
485.809	358.62
486.391	336.62
486.972	320.62
487.553	290.62
488.134	278.62
488.715	260.62
489.296	240.62
489.877	227.62
490.458	205.62
491.038	199.62
491.619	190.62
492.2	181.62
492.78	177.62
493.361	154.62
493.941	151.62
494.522	146.62
495.102	143.62
495.682	140.62
496.262	135.62
496.843	123.62
497.423	119.62
498.003	114.62
498.583	111.62
499.163	115.62
499.742	106.62
500.322	106.62
500.902	96.62
501.482	100.62
502.061	92.62
502.641	95.62
503.22	91.62
503.8	88.62
504.379	91.62
504.958	88.62
505.538	79.62
506.117	79.62
506.696	78.62
507.275	81.62
507.854	82.62
508.433	81.62
509.012	79.62
509.591	83.62
510.169	83.62
510.748	82.62
511.327	79.62
511.905	89.62
512.484	92.62
513.062	98.62
513.641	96.62
514.219	102.62
514.797	113.62
515.375	106.62
515.954	117.62
516.532	115.62
517.11	128.62
517.688	141.62
518.266	144.62
518.843	143.62
519.421	156.62
519.999	169.62
520.577	184.62
521.154	182.62
521.732	185.62
522.309	195.62
522.887	215.62
523.464	221.62
524.041	221.62
524.619	246.62
525.196	232.62
525.773	240.62
526.35	247.62
526.927	262.62
527.504	260.62
528.081	265.62
528.658	276.62
529.235	283.62
529.811	282.62
530.388	300.62
530.964	297.62
531.541	295.62
532.117	289.62
532.694	295.62
533.27	289.62
533.846	301.62
534.423	285.62
534.999	295.62
535.575	293.62
536.151	281.62
536.727	285.62
537.303	291.62
537.879	283.62
538.455	284.62
539.03	277.62
539.606	276.62
540.182	273.62
540.757	274.62
541.333	272.62
541.908	274.62
542.483	263.62
543.059	260.62
543.634	262.62
544.209	265.62
544.784	253.62
545.359	261.62
545.934	256.62
546.509	250.62
547.084	242.62
547.659	244.62
548.234	247.62
548.808	243.62
549.383	244.62
549.958	236.62
550.532	244.62
551.107	244.62
551.681	231.62
552.255	226.62
552.83	228.62
553.404	219.62
553.978	228.62
554.552	221.62
555.126	227.62
555.7	235.62
556.274	232.62
556.848	223.62
557.422	237.62
557.995	239.62
558.569	226.62
559.143	244.62
559.716	251.62
560.29	251.62
560.863	253.62
561.437	255.62
562.01	253.62
562.583	250.62
563.156	271.62
563.729	260.62
564.302	269.62
564.875	274.62
565.448	275.62
566.021	282.62
566.594	278.62
567.167	279.62
567.74	279.62
568.312	281.62
568.885	296.62
569.457	283.62
570.03	295.62
570.602	288.62
571.174	294.62
571.747	296.62
572.319	290.62
572.891	287.62
573.463	293.62
574.035	295.62
574.607	296.62
575.179	295.62
575.751	291.62
576.323	303.62
576.894	294.62
577.466	298.62
578.038	295.62
578.609	293.62
579.181	288.62
579.752	288.62
580.323	288.62
580.895	282.62
581.466	290.62
582.037	287.62
582.608	284.62
583.179	288.62
583.75	305.62
584.321	291.62
584.892	299.62
585.463	301.62
586.033	315.62
586.604	308.62
587.175	297.62
587.745	297.62
588.316	310.62
588.886	305.62
589.457	317.62
590.027	307.62
590.597	305.62
591.167	302.62
591.737	300.62
592.308	305.62
592.878	311.62
593.447	295.62
594.017	291.62
594.587	295.62
595.157	286.62
595.727	297.62
596.296	295.62
596.866	275.62
597.435	285.62
598.005	277.62
598.574	284.62
599.143	287.62
599.713	284.62
600.282	290.62
600.851	277.62
601.42	275.62
601.989	291.62
602.558	277.62
603.127	273.62
603.696	270.62
604.265	279.62
604.833	272.62
605.402	269.62
605.971	283.62
606.539	271.62
607.108	277.62
607.676	259.62
608.244	268.62
608.813	268.62
609.381	260.62
609.949	264.62
610.517	259.62
611.085	258.62
611.653	259.62
612.221	262.62
612.789	261.62
613.357	275.62
613.924	255.62
614.492	251.62
615.06	249.62
615.627	264.62
616.195	268.62
616.762	267.62
617.329	257.62
617.897	260.62
618.464	240.62
619.031	249.62
619.598	250.62
620.165	261.62
620.732	238.62
621.299	253.62
621.866	246.62
622.433	253.62
623	252.62
623.566	250.62
624.133	243.62
624.7	245.62
625.266	250.62
625.832	247.62
626.399	247.62
626.965	238.62
627.531	242.62
628.098	241.62
628.664	230.62
629.23	232.62
629.796	235.62
630.362	239.62
630.928	228.62
631.493	223.62
632.059	230.62
632.625	233.62
633.19	224.62
633.756	222.62
634.322	218.62
634.887	221.62
635.452	223.62
636.018	218.62
636.583	214.62
637.148	223.62
637.713	212.62
638.278	207.62
638.843	211.62
639.408	205.62
639.973	209.62
640.538	201.62
641.103	204.62
641.667	205.62
642.232	217.62
642.797	200.62
643.361	200.62
643.926	205.62
644.49	206.62
645.054	195.62
645.619	193.62
646.183	184.62
646.747	200.62
647.311	185.62
647.875	188.62
648.439	193.62
649.003	187.62
649.567	179.62
650.131	172.62
650.694	170.62
651.258	176.62
651.822	185.62
652.385	172.62
652.949	168.62
653.512	173.62
654.075	172.62
654.639	165.62
655.202	168.62
655.765	165.62
656.328	159.62
656.891	164.62
657.454	170.62
658.017	168.62
658.58	169.62
659.143	158.62
659.705	155.62
660.268	152.62
660.83	145.62
661.393	159.62
661.955	158.62
662.518	157.62
663.08	150.62
663.643	148.62
664.205	143.62
664.767	140.62
665.329	146.62
665.891	143.62
666.453	135.62
667.015	143.62
667.577	138.62
668.139	129.62
668.7	131.62
669.262	131.62
669.824	127.62
670.385	125.62
670.947	125.62
671.508	126.62
672.069	123.62
672.631	133.62
673.192	121.62
673.753	125.62
674.314	132.62
674.875	121.62
675.436	125.62
675.997	123.62
676.558	120.62
677.119	115.62
677.679	115.62
678.24	124.62
678.801	115.62
679.361	114.62
679.922	121.62
680.482	117.62
681.042	112.62
681.603	111.62
682.163	104.62
682.723	115.62
683.283	113.62
683.843	110.62
684.403	114.62
684.963	105.62
685.523	109.62
686.083	108.62
686.642	101.62
687.202	104.62
687.762	103.62
688.321	97.62
688.881	97.62
689.44	97.62
690	90.62
690.559	97.62
691.118	94.62
691.677	92.62
692.236	91.62
692.795	85.62
693.354	85.62
693.913	89.62
694.472	93.62
695.031	85.62
695.59	82.62
696.148	85.62
696.707	77.62
697.265	79.62
697.824	83.62
698.382	79.62
698.941	80.62
699.499	86.62
700.057	72.62
700.615	74.62
701.173	73.62
701.731	80.62
702.289	72.62
702.847	67.62
703.405	69.62
703.963	69.62
704.521	73.62
705.078	72.62
705.636	68.62
706.194	68.62
706.751	62.62
707.308	67.62
707.866	62.62
708.423	67.62
708.98	65.62
709.537	62.62
710.095	65.62
710.652	62.62
711.209	57.62
711.765	63.62
712.322	58.62
712.879	59.62
713.436	59.62
713.992	59.62
714.549	59.62
715.106	57.62
715.662	59.62
716.218	49.62
716.775	58.62
717.331	52.62
717.887	51.62
718.443	55.62
719	49.62
719.556	51.62
720.112	47.62
720.667	51.62
721.223	48.62
721.779	46.62
722.335	42.62
722.89	47.62
723.446	40.62
724.002	47.62
724.557	49.62
725.112	47.62
725.668	43.62
726.223	48.62
726.778	46.62
727.333	37.62
727.888	45.62
728.443	34.62
728.998	38.62
729.553	37.62
730.108	37.62
730.663	36.62
731.218	38.62
731.772	38.62
732.327	39.62
732.881	42.62
733.436	38.62
733.99	36.62
734.545	33.62
735.099	29.62
735.653	30.62
736.207	30.62
736.761	33.62
737.315	31.62
737.869	32.62
738.423	25.62
738.977	34.62
739.531	32.62
740.084	30.62
740.638	33.62
741.192	33.62
741.745	30.62
742.299	28.62
742.852	28.62
743.405	27.62
743.959	30.62
744.512	29.62
745.065	25.62
745.618	27.62
746.171	23.62
746.724	25.62
747.277	26.62
747.83	25.62
748.382	26.62
748.935	25.62
749.488	23.62
750.04	27.62
750.593	26.62
751.145	23.62
751.698	29.62
752.25	21.62
752.802	24.62
753.354	20.62
753.906	23.62
754.458	20.62
755.01	22.62
755.562	26.62
756.114	24.62
756.666	19.62
757.218	19.62
757.769	18.62
758.321	18.62
758.873	21.62
759.424	18.62
759.975	22.62
760.527	17.62
761.078	21.62
761.629	15.62
762.181	16.62
762.732	18.62
763.283	15.62
763.834	18.62
764.385	20.62
764.935	22.62
765.486	20.62
766.037	14.62
766.588	18.62
767.138	14.62
767.689	13.62
768.239	21.62
768.79	14.62
769.34	17.62
769.89	14.62
770.44	16.62
770.991	17.62
771.541	13.62
772.091	18.62
772.641	20.62
773.191	16.62
773.74	13.62
774.29	14.62
774.84	19.62
775.39	18.62
775.939	10.62
776.489	14.62
777.038	17.62
777.588	14.62
778.137	12.62
778.686	17.62
779.235	11.62
779.784	12.62
780.334	13.62
780.883	10.62
781.431	9.62
781.98	11.62
782.529	14.62
783.078	11.62
783.627	13.62
784.175	9.62
784.724	14.62
785.272	12.62
785.821	10.62
786.369	12.62
786.917	6.62
787.466	11.62
788.014	14.62
788.562	12.62
789.11	8.62
789.658	11.62
790.206	9.62
790.754	10.62
791.302	6.62
791.849	10.62
792.397	10.62
792.945	11.62
793.492	11.62
794.04	12.62
794.587	8.62
795.134	11.62
795.682	13.62
796.229	11.62
796.776	7.62
797.323	9.62
797.87	10.62
798.417	7.62
798.964	10.62
799.511	10.62
800.058	6.62
800.604	6.62
801.151	8.62
801.698	11.62
802.244	5.62
802.791	8.62
803.337	9.62
803.883	10.62
804.43	5.62
804.976	8.62
805.522	6.62
806.068	5.62
806.614	7.62
807.16	10.62
807.706	7.62
808.252	5.62
808.797	10.62
809.343	8.62
809.889	6.62
810.434	8.62
810.98	5.62
811.525	0.62
812.071	6.62
812.616	8.62
813.161	6.62
813.706	7.62
814.252	8.62
814.797	5.62
815.342	7.62
815.886	7.62
816.431	3.62
816.976	5.62
817.521	4.62
818.066	9.62
818.61	4.62
819.155	5.62
819.699	6.62
820.244	4.62
820.788	6.62
821.332	3.62
821.876	2.62
822.421	8.62
822.965	4.62
823.509	7.62
824.053	4.62
824.597	8.62
825.14	2.62
825.684	3.62
826.228	7.62
826.771	1.62
827.315	4.62
827.859	3.62
828.402	4.62
828.945	4.62
829.489	9.62
830.032	7.62
830.575	6.62
831.118	7.62
831.661	4.62
832.204	3.62
832.747	4.62
833.29	2.62
833.833	3.62
834.376	4.62
834.918	6.62
835.461	4.62
836.004	3.62
836.546	1.62
837.088	5.62
837.631	3.62
838.173	1.62
838.715	-0.38
839.257	3.62
839.8	5.62
840.342	5.62
840.884	5.62
841.425	2.62
841.967	3.62
842.509	5.62
843.051	3.62
843.592	4.62
844.134	2.62
844.676	2.62
845.217	3.62
845.758	3.62
846.3	2.62
846.841	1.62
847.382	1.62
847.923	3.62
848.464	2.62
849.005	3.62
849.546	7.62
850.087	5.62
850.628	8.62
851.169	5.62
851.709	2.62
852.25	3.62
852.791	0.62
853.331	4.62
853.871	5.62
854.412	0.62
854.952	2.62
855.492	1.62
856.033	6.62
856.573	1.62
857.113	0.62
857.653	2.62
858.193	1.62
858.732	5.62
859.272	1.62
859.812	-0.38
860.352	2.62
860.891	2.62
861.431	2.62
861.97	5.62
862.509	5.62
863.049	0.62
863.588	2.62
864.127	-1.38
864.666	5.62
865.205	1.62
865.744	0.62
866.283	-1.38
866.822	3.62
867.361	2.62
867.9	1.62
868.438	3.62
868.977	-1.38
869.516	2.62
870.054	4.62
870.593	2.62
871.131	3.62
871.669	1.62
872.207	4.62
872.746	2.62
873.284	1.62
873.822	2.62
874.36	-0.38
874.898	0.62
875.435	-0.38
875.973	0.62
876.511	0.62
877.048	2.62
877.586	-0.38
878.124	1.62
878.661	2.62
879.198	3.62
879.736	1.62
880.273	-0.38
880.81	1.62
881.347	1.62
881.884	-1.38
882.421	0.62
882.958	6.62
883.495	0.62
884.032	2.62
884.569	2.62
885.105	-0.38
885.642	1.62
886.178	1.62
886.715	1.62
887.251	0.62
887.788	-3.38
888.324	1.62
888.86	3.62
889.396	1.62
889.932	2.62
890.468	1.62
891.004	1.62
891.54	1.62
892.076	1.62
892.612	2.62
893.147	-0.38
893.683	0.62
894.219	5.62
894.754	-4.38
895.29	1.62
895.825	4.62
896.36	0.62
896.896	0.62
897.431	1.62
897.966	-2.38
898.501	-1.38
899.036	-1.38
899.571	1.62
900.106	3.62
900.64	-2.38
901.175	-0.38
901.71	-3.38
902.244	1.62
902.779	2.62
903.313	0.62
903.848	-2.38
904.382	-0.38
904.916	0.62
905.45	1.62
905.985	2.62
906.519	3.62
907.053	0.62
907.587	1.62
908.12	1.62
908.654	5.62
909.188	-2.38
909.722	3.62
910.255	-1.38
910.789	1.62
911.322	2.62
911.856	3.62
912.389	-1.38
912.922	5.62
913.456	3.62
913.989	2.62
914.522	-0.38
915.055	0.62
915.588	-0.38
916.121	0.62
916.653	3.62
917.186	-0.38
917.719	4.62
918.252	1.62
918.784	0.62
919.317	5.62
919.849	2.62
920.381	3.62
920.914	3.62
921.446	1.62
921.978	2.62
922.51	0.62
923.042	-1.38
923.574	5.62
924.106	4.62
924.638	-1.38
925.17	-0.38
925.701	2.62
926.233	-0.38
926.765	-1.38
927.296	0.62
927.828	-3.38
928.359	1.62
928.89	2.62
929.422	1.62
929.953	1.62
930.484	-1.38
931.015	-2.38
931.546	1.62
932.077	1.62
932.608	-1.38
933.138	-0.38
933.669	1.62
934.2	2.62
934.73	-4.38
935.261	-1.38
