Data from LOOPyPMA-1_QEP046991__37__18-11-46-758.txt Node

Date: Sun May 11 18:11:46 CEST 2025
User: superuser
Spectrometer: QEP04699
Trigger mode: 4
Integration Time (sec): 1.000000E-1
Scans to average: 1
Electric dark correction enabled: true
Nonlinearity correction enabled: false
Boxcar width: 0
XAxis mode: Wavelengths
Number of Pixels in Spectrum: 1044
>>>>>Begin Spectral Data<<<<<
347.57	7.75
348.165	0.75
348.76	0.75
349.355	-0.25
349.95	-2.25
350.545	-1.25
351.14	0.75
351.735	0.75
352.33	-1.25
352.924	1.75
353.519	-2.25
354.114	-2.25
354.708	2.75
355.303	3.75
355.897	0.75
356.491	-0.25
357.086	-3.25
357.68	0.75
358.274	-0.25
358.868	2.75
359.462	2.75
360.056	-0.25
360.65	3.75
361.244	-1.25
361.838	-1.25
362.431	-0.25
363.025	-1.25
363.619	-0.25
364.212	3.75
364.806	-0.25
365.399	4.75
365.993	-0.25
366.586	0.75
367.179	-1.25
367.772	2.75
368.366	0.75
368.959	-5.25
369.552	3.75
370.145	-2.25
370.738	0.75
371.331	1.75
371.923	-0.25
372.516	0.75
373.109	2.75
373.701	-0.25
374.294	-0.25
374.887	0.75
375.479	1.75
376.071	3.75
376.664	0.75
377.256	-0.25
377.848	0.75
378.44	1.75
379.033	-0.25
379.625	-1.25
380.217	5.75
380.808	1.75
381.4	-1.25
381.992	0.75
382.584	-1.25
383.176	-2.25
383.767	1.75
384.359	-1.25
384.95	0.75
385.542	-1.25
386.133	2.75
386.725	2.75
387.316	-0.25
387.907	-3.25
388.498	2.75
389.089	-1.25
389.68	-0.25
390.271	0.75
390.862	0.75
391.453	2.75
392.044	1.75
392.635	-0.25
393.225	0.75
393.816	-0.25
394.407	-1.25
394.997	1.75
395.588	2.75
396.178	2.75
396.768	-1.25
397.359	1.75
397.949	-2.25
398.539	3.75
399.129	-0.25
399.719	3.75
400.309	-1.25
400.899	5.75
401.489	0.75
402.079	-0.25
402.668	-0.25
403.258	2.75
403.848	0.75
404.437	-0.25
405.027	0.75
405.616	5.75
406.206	5.75
406.795	0.75
407.384	2.75
407.973	6.75
408.563	2.75
409.152	4.75
409.741	3.75
410.33	4.75
410.919	4.75
411.508	4.75
412.096	5.75
412.685	7.75
413.274	5.75
413.862	8.75
414.451	3.75
415.039	8.75
415.628	8.75
416.216	11.75
416.805	9.75
417.393	5.75
417.981	7.75
418.569	11.75
419.157	9.75
419.745	14.75
420.333	9.75
420.921	9.75
421.509	10.75
422.097	14.75
422.685	15.75
423.272	18.75
423.86	15.75
424.447	19.75
425.035	21.75
425.622	22.75
426.21	21.75
426.797	30.75
427.384	29.75
427.972	24.75
428.559	34.75
429.146	36.75
429.733	37.75
430.32	41.75
430.907	44.75
431.494	53.75
432.08	56.75
432.667	57.75
433.254	59.75
433.84	72.75
434.427	65.75
435.013	75.75
435.6	84.75
436.186	94.75
436.772	103.75
437.359	107.75
437.945	111.75
438.531	132.75
439.117	129.75
439.703	139.75
440.289	153.75
440.875	169.75
441.461	188.75
442.047	205.75
442.632	219.75
443.218	222.75
443.804	256.75
444.389	266.75
444.975	293.75
445.56	314.75
446.145	334.75
446.731	343.75
447.316	382.75
447.901	401.75
448.486	429.75
449.071	465.75
449.656	471.75
450.241	545.75
450.826	574.75
451.411	617.75
451.996	649.75
452.58	711.75
453.165	763.75
453.75	822.75
454.334	886.75
454.919	950.75
455.503	1054.75
456.087	1120.75
456.672	1175.75
457.256	1309.75
457.84	1390.75
458.424	1471.75
459.008	1578.75
459.592	1656.75
460.176	1739.75
460.76	1878.75
461.344	1957.75
461.927	2082.75
462.511	2092.75
463.095	2164.75
463.678	2194.75
464.262	2233.75
464.845	2271.75
465.429	2289.75
466.012	2240.75
466.595	2213.75
467.178	2133.75
467.762	2093.75
468.345	2009.75
468.928	1956.75
469.511	1835.75
470.094	1715.75
470.676	1612.75
471.259	1535.75
471.842	1449.75
472.425	1340.75
473.007	1261.75
473.59	1171.75
474.172	1090.75
474.755	1025.75
475.337	952.75
475.919	896.75
476.502	838.75
477.084	805.75
477.666	733.75
478.248	709.75
478.83	687.75
479.412	665.75
479.994	616.75
480.576	584.75
481.157	551.75
481.739	530.75
482.321	508.75
482.902	465.75
483.484	445.75
484.065	427.75
484.647	388.75
485.228	375.75
485.809	348.75
486.391	324.75
486.972	304.75
487.553	276.75
488.134	275.75
488.715	255.75
489.296	241.75
489.877	220.75
490.458	203.75
491.038	196.75
491.619	191.75
492.2	172.75
492.78	167.75
493.361	165.75
493.941	146.75
494.522	142.75
495.102	134.75
495.682	140.75
496.262	127.75
496.843	118.75
497.423	115.75
498.003	115.75
498.583	111.75
499.163	111.75
499.742	106.75
500.322	99.75
500.902	99.75
501.482	98.75
502.061	90.75
502.641	88.75
503.22	86.75
503.8	83.75
504.379	83.75
504.958	81.75
505.538	83.75
506.117	79.75
506.696	75.75
507.275	81.75
507.854	89.75
508.433	75.75
509.012	74.75
509.591	80.75
510.169	85.75
510.748	86.75
511.327	87.75
511.905	86.75
512.484	88.75
513.062	86.75
513.641	99.75
514.219	94.75
514.797	102.75
515.375	109.75
515.954	116.75
516.532	127.75
517.11	131.75
517.688	142.75
518.266	140.75
518.843	151.75
519.421	156.75
519.999	163.75
520.577	171.75
521.154	182.75
521.732	197.75
522.309	214.75
522.887	211.75
523.464	213.75
524.041	229.75
524.619	234.75
525.196	251.75
525.773	243.75
526.35	264.75
526.927	264.75
527.504	273.75
528.081	275.75
528.658	286.75
529.235	296.75
529.811	292.75
530.388	288.75
530.964	282.75
531.541	294.75
532.117	291.75
532.694	294.75
533.27	296.75
533.846	283.75
534.423	287.75
534.999	294.75
535.575	290.75
536.151	283.75
536.727	288.75
537.303	295.75
537.879	287.75
538.455	287.75
539.03	294.75
539.606	273.75
540.182	276.75
540.757	276.75
541.333	268.75
541.908	276.75
542.483	267.75
543.059	262.75
543.634	265.75
544.209	263.75
544.784	251.75
545.359	266.75
545.934	250.75
546.509	247.75
547.084	245.75
547.659	257.75
548.234	241.75
548.808	253.75
549.383	231.75
549.958	242.75
550.532	232.75
551.107	235.75
551.681	230.75
552.255	241.75
552.83	225.75
553.404	231.75
553.978	233.75
554.552	232.75
555.126	228.75
555.7	240.75
556.274	223.75
556.848	235.75
557.422	230.75
557.995	237.75
558.569	234.75
559.143	234.75
559.716	241.75
560.29	244.75
560.863	248.75
561.437	250.75
562.01	247.75
562.583	257.75
563.156	268.75
563.729	273.75
564.302	261.75
564.875	274.75
565.448	263.75
566.021	270.75
566.594	274.75
567.167	284.75
567.74	276.75
568.312	290.75
568.885	289.75
569.457	291.75
570.03	288.75
570.602	294.75
571.174	288.75
571.747	300.75
572.319	301.75
572.891	309.75
573.463	305.75
574.035	319.75
574.607	293.75
575.179	308.75
575.751	305.75
576.323	291.75
576.894	285.75
577.466	290.75
578.038	280.75
578.609	293.75
579.181	288.75
579.752	308.75
580.323	297.75
580.895	305.75
581.466	293.75
582.037	306.75
582.608	293.75
583.179	298.75
583.75	294.75
584.321	309.75
584.892	315.75
585.463	314.75
586.033	308.75
586.604	308.75
587.175	309.75
587.745	313.75
588.316	303.75
588.886	313.75
589.457	310.75
590.027	315.75
590.597	310.75
591.167	309.75
591.737	303.75
592.308	308.75
592.878	309.75
593.447	296.75
594.017	310.75
594.587	286.75
595.157	291.75
595.727	301.75
596.296	290.75
596.866	297.75
597.435	288.75
598.005	298.75
598.574	279.75
599.143	288.75
599.713	292.75
600.282	274.75
600.851	285.75
601.42	281.75
601.989	292.75
602.558	282.75
603.127	280.75
603.696	273.75
604.265	282.75
604.833	268.75
605.402	279.75
605.971	254.75
606.539	267.75
607.108	268.75
607.676	270.75
608.244	270.75
608.813	262.75
609.381	261.75
609.949	274.75
610.517	268.75
611.085	262.75
611.653	262.75
612.221	253.75
612.789	260.75
613.357	249.75
613.924	258.75
614.492	255.75
615.06	263.75
615.627	267.75
616.195	256.75
616.762	251.75
617.329	268.75
617.897	253.75
618.464	243.75
619.031	252.75
619.598	261.75
620.165	254.75
620.732	267.75
621.299	260.75
621.866	243.75
622.433	254.75
623	254.75
623.566	246.75
624.133	245.75
624.7	238.75
625.266	249.75
625.832	242.75
626.399	250.75
626.965	240.75
627.531	252.75
628.098	246.75
628.664	246.75
629.23	244.75
629.796	236.75
630.362	233.75
630.928	244.75
631.493	234.75
632.059	226.75
632.625	249.75
633.19	237.75
633.756	228.75
634.322	223.75
634.887	234.75
635.452	229.75
636.018	218.75
636.583	223.75
637.148	220.75
637.713	214.75
638.278	213.75
638.843	209.75
639.408	214.75
639.973	215.75
640.538	207.75
641.103	211.75
641.667	215.75
642.232	203.75
642.797	200.75
643.361	205.75
643.926	204.75
644.49	205.75
645.054	191.75
645.619	187.75
646.183	192.75
646.747	190.75
647.311	184.75
647.875	191.75
648.439	187.75
649.003	175.75
649.567	195.75
650.131	181.75
650.694	179.75
651.258	179.75
651.822	174.75
652.385	171.75
652.949	174.75
653.512	174.75
654.075	172.75
654.639	165.75
655.202	169.75
655.765	165.75
656.328	168.75
656.891	171.75
657.454	158.75
658.017	159.75
658.58	162.75
659.143	157.75
659.705	164.75
660.268	160.75
660.83	162.75
661.393	143.75
661.955	154.75
662.518	152.75
663.08	145.75
663.643	149.75
664.205	143.75
664.767	146.75
665.329	139.75
665.891	143.75
666.453	141.75
667.015	141.75
667.577	136.75
668.139	133.75
668.7	132.75
669.262	128.75
669.824	128.75
670.385	134.75
670.947	138.75
671.508	125.75
672.069	117.75
672.631	126.75
673.192	125.75
673.753	122.75
674.314	124.75
674.875	118.75
675.436	127.75
675.997	123.75
676.558	127.75
677.119	116.75
677.679	117.75
678.24	118.75
678.801	111.75
679.361	110.75
679.922	120.75
680.482	119.75
681.042	114.75
681.603	116.75
682.163	114.75
682.723	114.75
683.283	103.75
683.843	116.75
684.403	106.75
684.963	107.75
685.523	107.75
686.083	99.75
686.642	98.75
687.202	98.75
687.762	99.75
688.321	100.75
688.881	97.75
689.44	98.75
690	95.75
690.559	92.75
691.118	95.75
691.677	94.75
692.236	88.75
692.795	82.75
693.354	90.75
693.913	93.75
694.472	87.75
695.031	86.75
695.59	78.75
696.148	87.75
696.707	85.75
697.265	73.75
697.824	78.75
698.382	86.75
698.941	75.75
699.499	77.75
700.057	75.75
700.615	79.75
701.173	79.75
701.731	74.75
702.289	72.75
702.847	75.75
703.405	78.75
703.963	68.75
704.521	71.75
705.078	71.75
705.636	66.75
706.194	70.75
706.751	64.75
707.308	63.75
707.866	65.75
708.423	64.75
708.98	63.75
709.537	65.75
710.095	66.75
710.652	63.75
711.209	57.75
711.765	56.75
712.322	59.75
712.879	54.75
713.436	55.75
713.992	55.75
714.549	58.75
715.106	60.75
715.662	58.75
716.218	56.75
716.775	48.75
717.331	51.75
717.887	51.75
718.443	51.75
719	45.75
719.556	51.75
720.112	49.75
720.667	48.75
721.223	43.75
721.779	43.75
722.335	47.75
722.89	36.75
723.446	46.75
724.002	45.75
724.557	39.75
725.112	42.75
725.668	41.75
726.223	44.75
726.778	40.75
727.333	38.75
727.888	39.75
728.443	39.75
728.998	42.75
729.553	40.75
730.108	40.75
730.663	40.75
731.218	39.75
731.772	35.75
732.327	37.75
732.881	38.75
733.436	36.75
733.99	39.75
734.545	35.75
735.099	36.75
735.653	34.75
736.207	28.75
736.761	30.75
737.315	36.75
737.869	30.75
738.423	34.75
738.977	29.75
739.531	29.75
740.084	33.75
740.638	27.75
741.192	34.75
741.745	26.75
742.299	32.75
742.852	30.75
743.405	29.75
743.959	31.75
744.512	29.75
745.065	19.75
745.618	26.75
746.171	28.75
746.724	24.75
747.277	25.75
747.83	28.75
748.382	25.75
748.935	26.75
749.488	21.75
750.04	21.75
750.593	20.75
751.145	17.75
751.698	17.75
752.25	20.75
752.802	22.75
753.354	22.75
753.906	22.75
754.458	21.75
755.01	17.75
755.562	19.75
756.114	24.75
756.666	22.75
757.218	19.75
757.769	17.75
758.321	25.75
758.873	21.75
759.424	20.75
759.975	24.75
760.527	19.75
761.078	18.75
761.629	19.75
762.181	17.75
762.732	15.75
763.283	13.75
763.834	15.75
764.385	20.75
764.935	15.75
765.486	15.75
766.037	17.75
766.588	15.75
767.138	19.75
767.689	10.75
768.239	16.75
768.79	17.75
769.34	16.75
769.89	13.75
770.44	12.75
770.991	14.75
771.541	14.75
772.091	9.75
772.641	16.75
773.191	15.75
773.74	15.75
774.29	11.75
774.84	11.75
775.39	11.75
775.939	15.75
776.489	9.75
777.038	13.75
777.588	15.75
778.137	14.75
778.686	10.75
779.235	14.75
779.784	11.75
780.334	9.75
780.883	10.75
781.431	10.75
781.98	12.75
782.529	13.75
783.078	11.75
783.627	16.75
784.175	13.75
784.724	10.75
785.272	9.75
785.821	11.75
786.369	11.75
786.917	15.75
787.466	11.75
788.014	13.75
788.562	11.75
789.11	9.75
789.658	5.75
790.206	11.75
790.754	13.75
791.302	12.75
791.849	7.75
792.397	13.75
792.945	5.75
793.492	8.75
794.04	5.75
794.587	11.75
795.134	9.75
795.682	5.75
796.229	12.75
796.776	8.75
797.323	10.75
797.87	7.75
798.417	5.75
798.964	7.75
799.511	5.75
800.058	7.75
800.604	8.75
801.151	2.75
801.698	8.75
802.244	7.75
802.791	7.75
803.337	6.75
803.883	4.75
804.43	11.75
804.976	10.75
805.522	7.75
806.068	6.75
806.614	1.75
807.16	7.75
807.706	5.75
808.252	3.75
808.797	7.75
809.343	5.75
809.889	9.75
810.434	1.75
810.98	4.75
811.525	6.75
812.071	4.75
812.616	3.75
813.161	5.75
813.706	2.75
814.252	4.75
814.797	3.75
815.342	2.75
815.886	6.75
816.431	5.75
816.976	9.75
817.521	1.75
818.066	1.75
818.61	1.75
819.155	7.75
819.699	7.75
820.244	3.75
820.788	4.75
821.332	2.75
821.876	4.75
822.421	4.75
822.965	5.75
823.509	1.75
824.053	3.75
824.597	7.75
825.14	1.75
825.684	1.75
826.228	5.75
826.771	2.75
827.315	4.75
827.859	5.75
828.402	1.75
828.945	2.75
829.489	1.75
830.032	2.75
830.575	3.75
831.118	-1.25
831.661	0.75
832.204	3.75
832.747	3.75
833.29	-0.25
833.833	2.75
834.376	4.75
834.918	4.75
835.461	3.75
836.004	1.75
836.546	0.75
837.088	4.75
837.631	0.75
838.173	3.75
838.715	6.75
839.257	0.75
839.8	4.75
840.342	0.75
840.884	2.75
841.425	5.75
841.967	-1.25
842.509	0.75
843.051	6.75
843.592	2.75
844.134	1.75
844.676	3.75
845.217	0.75
845.758	4.75
846.3	6.75
846.841	3.75
847.382	0.75
847.923	-0.25
848.464	3.75
849.005	2.75
849.546	5.75
850.087	0.75
850.628	4.75
851.169	1.75
851.709	5.75
852.25	5.75
852.791	-0.25
853.331	-1.25
853.871	2.75
854.412	-0.25
854.952	-1.25
855.492	-1.25
856.033	2.75
856.573	3.75
857.113	-0.25
857.653	0.75
858.193	2.75
858.732	0.75
859.272	2.75
859.812	-0.25
860.352	5.75
860.891	2.75
861.431	0.75
861.97	-0.25
862.509	3.75
863.049	-0.25
863.588	3.75
864.127	-0.25
864.666	3.75
865.205	3.75
865.744	2.75
866.283	2.75
866.822	0.75
867.361	-0.25
867.9	-0.25
868.438	1.75
868.977	0.75
869.516	0.75
870.054	5.75
870.593	-2.25
871.131	2.75
871.669	4.75
872.207	1.75
872.746	0.75
873.284	1.75
873.822	-1.25
874.36	-0.25
874.898	1.75
875.435	0.75
875.973	-0.25
876.511	0.75
877.048	2.75
877.586	3.75
878.124	-3.25
878.661	-0.25
879.198	3.75
879.736	-0.25
880.273	1.75
880.81	0.75
881.347	2.75
881.884	-1.25
882.421	-0.25
882.958	-0.25
883.495	-3.25
884.032	3.75
884.569	2.75
885.105	1.75
885.642	0.75
886.178	-3.25
886.715	1.75
887.251	-3.25
887.788	0.75
888.324	-0.25
888.86	0.75
889.396	4.75
889.932	2.75
890.468	-2.25
891.004	2.75
891.54	1.75
892.076	2.75
892.612	-0.25
893.147	0.75
893.683	1.75
894.219	-1.25
894.754	1.75
895.29	-1.25
895.825	0.75
896.36	4.75
896.896	1.75
897.431	-0.25
897.966	4.75
898.501	2.75
899.036	2.75
899.571	-0.25
900.106	3.75
900.64	-0.25
901.175	-2.25
901.71	5.75
902.244	-1.25
902.779	-0.25
903.313	0.75
903.848	0.75
904.382	0.75
904.916	0.75
905.45	-1.25
905.985	-1.25
906.519	-0.25
907.053	-1.25
907.587	-1.25
908.12	-6.25
908.654	1.75
909.188	1.75
909.722	1.75
910.255	-0.25
910.789	1.75
911.322	1.75
911.856	-2.25
912.389	3.75
912.922	0.75
913.456	-1.25
913.989	0.75
914.522	0.75
915.055	-1.25
915.588	0.75
916.121	-2.25
916.653	-4.25
917.186	-1.25
917.719	-0.25
918.252	0.75
918.784	1.75
919.317	1.75
919.849	0.75
920.381	1.75
920.914	2.75
921.446	1.75
921.978	3.75
922.51	0.75
923.042	-0.25
923.574	0.75
924.106	-0.25
924.638	1.75
925.17	-3.25
925.701	-0.25
926.233	-1.25
926.765	0.75
927.296	-2.25
927.828	3.75
928.359	2.75
928.89	-3.25
929.422	-0.25
929.953	-0.25
930.484	-1.25
931.015	-3.25
931.546	0.75
932.077	1.75
932.608	2.75
933.138	0.75
933.669	-3.25
934.2	-0.25
934.73	-1.25
935.261	-4.25
