Data from LOOPyPMA-1_QEP046991__30__18-11-39-758.txt Node

Date: Sun May 11 18:11:39 CEST 2025
User: superuser
Spectrometer: QEP04699
Trigger mode: 4
Integration Time (sec): 1.000000E-1
Scans to average: 1
Electric dark correction enabled: true
Nonlinearity correction enabled: false
Boxcar width: 0
XAxis mode: Wavelengths
Number of Pixels in Spectrum: 1044
>>>>>Begin Spectral Data<<<<<
347.57	11
348.165	-1
348.76	-1
349.355	-2
349.95	-1
350.545	-4
351.14	-5
351.735	-4
352.33	0
352.924	2
353.519	1
354.114	5
354.708	2
355.303	-4
355.897	-4
356.491	2
357.086	-4
357.68	-2
358.274	-3
358.868	-3
359.462	-2
360.056	-1
360.65	-3
361.244	0
361.838	-1
362.431	0
363.025	0
363.619	-4
364.212	1
364.806	-3
365.399	-6
365.993	0
366.586	-3
367.179	-4
367.772	3
368.366	-1
368.959	-1
369.552	-3
370.145	-1
370.738	2
371.331	-1
371.923	1
372.516	-3
373.109	1
373.701	0
374.294	1
374.887	2
375.479	5
376.071	0
376.664	4
377.256	-1
377.848	-1
378.44	0
379.033	0
379.625	-2
380.217	-1
380.808	-1
381.4	-1
381.992	0
382.584	-3
383.176	0
383.767	-2
384.359	1
384.95	1
385.542	-1
386.133	1
386.725	1
387.316	1
387.907	-1
388.498	1
389.089	-3
389.68	6
390.271	-1
390.862	-3
391.453	2
392.044	-1
392.635	1
393.225	1
393.816	0
394.407	1
394.997	1
395.588	-3
396.178	0
396.768	3
397.359	-2
397.949	1
398.539	1
399.129	3
399.719	6
400.309	0
400.899	1
401.489	-3
402.079	-1
402.668	6
403.258	3
403.848	1
404.437	5
405.027	3
405.616	-3
406.206	5
406.795	3
407.384	1
407.973	3
408.563	5
409.152	3
409.741	3
410.33	5
410.919	7
411.508	2
412.096	8
412.685	8
413.274	5
413.862	5
414.451	5
415.039	5
415.628	6
416.216	11
416.805	9
417.393	8
417.981	8
418.569	9
419.157	13
419.745	13
420.333	14
420.921	13
421.509	16
422.097	15
422.685	20
423.272	14
423.86	19
424.447	18
425.035	21
425.622	27
426.21	26
426.797	25
427.384	29
427.972	34
428.559	34
429.146	40
429.733	36
430.32	38
430.907	45
431.494	45
432.08	47
432.667	56
433.254	68
433.84	63
434.427	78
435.013	78
435.6	86
436.186	92
436.772	93
437.359	96
437.945	126
438.531	126
439.117	141
439.703	146
440.289	157
440.875	169
441.461	195
442.047	202
442.632	210
443.218	233
443.804	242
444.389	261
444.975	278
445.56	320
446.145	315
446.731	354
447.316	380
447.901	394
448.486	429
449.071	464
449.656	508
450.241	535
450.826	592
451.411	615
451.996	658
452.58	708
453.165	750
453.75	805
454.334	874
454.919	949
455.503	1008
456.087	1104
456.672	1218
457.256	1274
457.84	1354
458.424	1467
459.008	1564
459.592	1665
460.176	1780
460.76	1838
461.344	1951
461.927	2021
462.511	2083
463.095	2156
463.678	2210
464.262	2237
464.845	2225
465.429	2242
466.012	2211
466.595	2197
467.178	2134
467.762	2081
468.345	1975
468.928	1893
469.511	1839
470.094	1721
470.676	1638
471.259	1516
471.842	1411
472.425	1343
473.007	1232
473.59	1152
474.172	1065
474.755	1007
475.337	927
475.919	865
476.502	816
477.084	782
477.666	742
478.248	690
478.83	676
479.412	634
479.994	599
480.576	571
481.157	555
481.739	517
482.321	509
482.902	472
483.484	441
484.065	428
484.647	390
485.228	376
485.809	342
486.391	321
486.972	317
487.553	285
488.134	275
488.715	252
489.296	243
489.877	217
490.458	196
491.038	192
491.619	181
492.2	167
492.78	149
493.361	160
493.941	145
494.522	140
495.102	136
495.682	129
496.262	125
496.843	122
497.423	119
498.003	119
498.583	113
499.163	104
499.742	109
500.322	98
500.902	93
501.482	101
502.061	94
502.641	93
503.22	91
503.8	94
504.379	83
504.958	80
505.538	77
506.117	80
506.696	80
507.275	85
507.854	80
508.433	76
509.012	82
509.591	77
510.169	86
510.748	80
511.327	87
511.905	87
512.484	89
513.062	98
513.641	97
514.219	93
514.797	113
515.375	113
515.954	118
516.532	128
517.11	124
517.688	137
518.266	151
518.843	153
519.421	157
519.999	181
520.577	180
521.154	189
521.732	196
522.309	204
522.887	218
523.464	219
524.041	238
524.619	247
525.196	253
525.773	256
526.35	265
526.927	278
527.504	273
528.081	278
528.658	296
529.235	286
529.811	289
530.388	300
530.964	297
531.541	307
532.117	289
532.694	302
533.27	302
533.846	296
534.423	298
534.999	284
535.575	293
536.151	307
536.727	301
537.303	294
537.879	297
538.455	293
539.03	304
539.606	284
540.182	281
540.757	283
541.333	283
541.908	275
542.483	284
543.059	283
543.634	282
544.209	279
544.784	268
545.359	260
545.934	259
546.509	259
547.084	254
547.659	256
548.234	260
548.808	252
549.383	259
549.958	239
550.532	241
551.107	249
551.681	250
552.255	245
552.83	241
553.404	242
553.978	242
554.552	239
555.126	238
555.7	248
556.274	236
556.848	239
557.422	242
557.995	243
558.569	238
559.143	243
559.716	248
560.29	254
560.863	260
561.437	249
562.01	266
562.583	276
563.156	268
563.729	273
564.302	275
564.875	277
565.448	274
566.021	290
566.594	296
567.167	293
567.74	291
568.312	281
568.885	302
569.457	305
570.03	307
570.602	298
571.174	306
571.747	310
572.319	304
572.891	299
573.463	313
574.035	297
574.607	311
575.179	313
575.751	301
576.323	304
576.894	308
577.466	308
578.038	306
578.609	298
579.181	300
579.752	302
580.323	310
580.895	303
581.466	302
582.037	300
582.608	305
583.179	312
583.75	321
584.321	304
584.892	323
585.463	316
586.033	318
586.604	325
587.175	316
587.745	316
588.316	320
588.886	318
589.457	324
590.027	318
590.597	317
591.167	328
591.737	326
592.308	312
592.878	316
593.447	310
594.017	329
594.587	312
595.157	310
595.727	307
596.296	300
596.866	299
597.435	301
598.005	309
598.574	297
599.143	304
599.713	283
600.282	299
600.851	297
601.42	282
601.989	284
602.558	296
603.127	293
603.696	271
604.265	277
604.833	286
605.402	281
605.971	283
606.539	277
607.108	275
607.676	274
608.244	282
608.813	272
609.381	278
609.949	273
610.517	280
611.085	267
611.653	278
612.221	281
612.789	266
613.357	274
613.924	271
614.492	278
615.06	275
615.627	261
616.195	268
616.762	257
617.329	278
617.897	277
618.464	248
619.031	269
619.598	264
620.165	279
620.732	277
621.299	251
621.866	260
622.433	264
623	269
623.566	249
624.133	250
624.7	257
625.266	242
625.832	255
626.399	261
626.965	249
627.531	257
628.098	243
628.664	243
629.23	249
629.796	236
630.362	258
630.928	242
631.493	245
632.059	249
632.625	239
633.19	238
633.756	236
634.322	232
634.887	230
635.452	226
636.018	234
636.583	223
637.148	229
637.713	228
638.278	222
638.843	227
639.408	219
639.973	229
640.538	216
641.103	208
641.667	215
642.232	211
642.797	210
643.361	207
643.926	205
644.49	217
645.054	201
645.619	203
646.183	196
646.747	195
647.311	196
647.875	200
648.439	191
649.003	189
649.567	189
650.131	187
650.694	189
651.258	186
651.822	180
652.385	172
652.949	175
653.512	182
654.075	176
654.639	173
655.202	175
655.765	170
656.328	175
656.891	167
657.454	172
658.017	164
658.58	167
659.143	168
659.705	159
660.268	153
660.83	167
661.393	151
661.955	150
662.518	157
663.08	157
663.643	152
664.205	148
664.767	156
665.329	152
665.891	153
666.453	148
667.015	141
667.577	139
668.139	138
668.7	136
669.262	139
669.824	135
670.385	130
670.947	137
671.508	126
672.069	134
672.631	131
673.192	120
673.753	131
674.314	124
674.875	116
675.436	125
675.997	132
676.558	126
677.119	126
677.679	121
678.24	118
678.801	125
679.361	119
679.922	127
680.482	123
681.042	115
681.603	118
682.163	115
682.723	118
683.283	117
683.843	120
684.403	113
684.963	113
685.523	115
686.083	104
686.642	107
687.202	103
687.762	106
688.321	104
688.881	93
689.44	109
690	98
690.559	95
691.118	100
691.677	97
692.236	100
692.795	91
693.354	96
693.913	88
694.472	85
695.031	96
695.59	92
696.148	89
696.707	91
697.265	90
697.824	93
698.382	88
698.941	83
699.499	80
700.057	78
700.615	86
701.173	76
701.731	73
702.289	75
702.847	75
703.405	68
703.963	70
704.521	71
705.078	73
705.636	69
706.194	67
706.751	70
707.308	65
707.866	65
708.423	67
708.98	61
709.537	61
710.095	62
710.652	65
711.209	61
711.765	67
712.322	61
712.879	58
713.436	61
713.992	58
714.549	60
715.106	57
715.662	52
716.218	53
716.775	51
717.331	51
717.887	53
718.443	46
719	48
719.556	59
720.112	49
720.667	47
721.223	49
721.779	48
722.335	46
722.89	45
723.446	39
724.002	45
724.557	42
725.112	48
725.668	44
726.223	40
726.778	48
727.333	39
727.888	40
728.443	37
728.998	41
729.553	39
730.108	38
730.663	36
731.218	39
731.772	34
732.327	36
732.881	35
733.436	33
733.99	35
734.545	34
735.099	39
735.653	36
736.207	33
736.761	30
737.315	35
737.869	31
738.423	31
738.977	31
739.531	30
740.084	26
740.638	31
741.192	31
741.745	30
742.299	33
742.852	31
743.405	26
743.959	29
744.512	25
745.065	26
745.618	25
746.171	25
746.724	26
747.277	32
747.83	30
748.382	26
748.935	22
749.488	33
750.04	26
750.593	25
751.145	25
751.698	25
752.25	25
752.802	27
753.354	22
753.906	18
754.458	27
755.01	20
755.562	19
756.114	19
756.666	17
757.218	20
757.769	16
758.321	21
758.873	17
759.424	23
759.975	23
760.527	18
761.078	15
761.629	27
762.181	20
762.732	19
763.283	17
763.834	17
764.385	17
764.935	17
765.486	15
766.037	13
766.588	16
767.138	16
767.689	18
768.239	17
768.79	16
769.34	16
769.89	16
770.44	17
770.991	15
771.541	12
772.091	9
772.641	14
773.191	17
773.74	12
774.29	13
774.84	20
775.39	13
775.939	11
776.489	14
777.038	15
777.588	14
778.137	12
778.686	13
779.235	11
779.784	12
780.334	10
780.883	12
781.431	15
781.98	10
782.529	9
783.078	10
783.627	13
784.175	18
784.724	13
785.272	7
785.821	13
786.369	13
786.917	10
787.466	10
788.014	11
788.562	10
789.11	9
789.658	12
790.206	11
790.754	10
791.302	12
791.849	9
792.397	7
792.945	11
793.492	13
794.04	10
794.587	8
795.134	3
795.682	10
796.229	8
796.776	7
797.323	11
797.87	10
798.417	7
798.964	7
799.511	7
800.058	9
800.604	7
801.151	4
801.698	7
802.244	7
802.791	7
803.337	10
803.883	8
804.43	4
804.976	4
805.522	6
806.068	8
806.614	8
807.16	7
807.706	9
808.252	7
808.797	10
809.343	10
809.889	4
810.434	11
810.98	9
811.525	7
812.071	6
812.616	3
813.161	8
813.706	5
814.252	2
814.797	9
815.342	1
815.886	6
816.431	6
816.976	6
817.521	7
818.066	2
818.61	4
819.155	5
819.699	5
820.244	3
820.788	4
821.332	8
821.876	3
822.421	1
822.965	4
823.509	1
824.053	8
824.597	6
825.14	5
825.684	5
826.228	4
826.771	3
827.315	2
827.859	7
828.402	2
828.945	1
829.489	6
830.032	2
830.575	3
831.118	1
831.661	5
832.204	1
832.747	2
833.29	2
833.833	1
834.376	2
834.918	7
835.461	7
836.004	3
836.546	3
837.088	2
837.631	1
838.173	3
838.715	1
839.257	6
839.8	1
840.342	3
840.884	3
841.425	0
841.967	1
842.509	1
843.051	1
843.592	-2
844.134	5
844.676	4
845.217	2
845.758	2
846.3	5
846.841	3
847.382	0
847.923	2
848.464	0
849.005	2
849.546	-3
850.087	2
850.628	4
851.169	2
851.709	2
852.25	4
852.791	4
853.331	3
853.871	0
854.412	-1
854.952	1
855.492	2
856.033	-2
856.573	1
857.113	2
857.653	1
858.193	2
858.732	3
859.272	1
859.812	3
860.352	0
860.891	3
861.431	-2
861.97	-3
862.509	1
863.049	1
863.588	5
864.127	0
864.666	1
865.205	0
865.744	1
866.283	-1
866.822	3
867.361	1
867.9	4
868.438	-2
868.977	4
869.516	1
870.054	3
870.593	-2
871.131	4
871.669	3
872.207	1
872.746	-2
873.284	2
873.822	1
874.36	3
874.898	-2
875.435	-1
875.973	3
876.511	-1
877.048	2
877.586	-1
878.124	1
878.661	0
879.198	2
879.736	2
880.273	1
880.81	-1
881.347	1
881.884	2
882.421	-1
882.958	1
883.495	-2
884.032	1
884.569	-1
885.105	0
885.642	0
886.178	-1
886.715	-1
887.251	-1
887.788	-2
888.324	1
888.86	1
889.396	0
889.932	1
890.468	2
891.004	1
891.54	0
892.076	-2
892.612	0
893.147	-1
893.683	-1
894.219	-3
894.754	1
895.29	-1
895.825	-1
896.36	3
896.896	-1
897.431	0
897.966	3
898.501	0
899.036	-1
899.571	0
900.106	-2
900.64	3
901.175	-2
901.71	2
902.244	0
902.779	1
903.313	-3
903.848	0
904.382	3
904.916	2
905.45	2
905.985	0
906.519	-2
907.053	3
907.587	-1
908.12	-3
908.654	2
909.188	3
909.722	0
910.255	1
910.789	-2
911.322	0
911.856	-3
912.389	0
912.922	1
913.456	-1
913.989	-1
914.522	-1
915.055	-4
915.588	1
916.121	-2
916.653	0
917.186	2
917.719	3
918.252	2
918.784	-1
919.317	-1
919.849	-2
920.381	-1
920.914	-1
921.446	1
921.978	1
922.51	-2
923.042	2
923.574	2
924.106	-4
924.638	0
925.17	-1
925.701	0
926.233	-2
926.765	-2
927.296	-3
927.828	2
928.359	0
928.89	-1
929.422	1
929.953	2
930.484	3
931.015	3
931.546	-2
932.077	-2
932.608	1
933.138	-1
933.669	-2
934.2	-4
934.73	1
935.261	-2
