Data from LOOPyPMA-1_QEP046991__27__18-11-36-758.txt Node

Date: Sun May 11 18:11:36 CEST 2025
User: superuser
Spectrometer: QEP04699
Trigger mode: 4
Integration Time (sec): 1.000000E-1
Scans to average: 1
Electric dark correction enabled: true
Nonlinearity correction enabled: false
Boxcar width: 0
XAxis mode: Wavelengths
Number of Pixels in Spectrum: 1044
>>>>>Begin Spectral Data<<<<<
347.57	12.12
348.165	0.12
348.76	-0.88
349.355	-0.88
349.95	0.12
350.545	-3.88
351.14	-1.88
351.735	0.12
352.33	-1.88
352.924	1.12
353.519	-1.88
354.114	1.12
354.708	-0.88
355.303	-3.88
355.897	-3.88
356.491	-0.88
357.086	-4.88
357.68	-1.88
358.274	-2.88
358.868	1.12
359.462	-0.88
360.056	1.12
360.65	3.12
361.244	0.12
361.838	-0.88
362.431	0.12
363.025	-0.88
363.619	-0.88
364.212	1.12
364.806	-0.88
365.399	1.12
365.993	-0.88
366.586	-1.88
367.179	-4.88
367.772	3.12
368.366	-1.88
368.959	-3.88
369.552	0.12
370.145	1.12
370.738	-3.88
371.331	3.12
371.923	-0.88
372.516	0.12
373.109	1.12
373.701	0.12
374.294	1.12
374.887	-0.88
375.479	-4.88
376.071	1.12
376.664	3.12
377.256	2.12
377.848	-0.88
378.44	2.12
379.033	0.12
379.625	1.12
380.217	3.12
380.808	-0.88
381.4	-2.88
381.992	-0.88
382.584	-0.88
383.176	2.12
383.767	-3.88
384.359	3.12
384.95	1.12
385.542	-2.88
386.133	-3.88
386.725	1.12
387.316	-0.88
387.907	-1.88
388.498	1.12
389.089	3.12
389.68	-2.88
390.271	2.12
390.862	6.12
391.453	1.12
392.044	-3.88
392.635	0.12
393.225	-2.88
393.816	1.12
394.407	2.12
394.997	2.12
395.588	0.12
396.178	1.12
396.768	1.12
397.359	5.12
397.949	1.12
398.539	0.12
399.129	1.12
399.719	1.12
400.309	0.12
400.899	2.12
401.489	5.12
402.079	2.12
402.668	1.12
403.258	4.12
403.848	4.12
404.437	0.12
405.027	3.12
405.616	3.12
406.206	3.12
406.795	0.12
407.384	4.12
407.973	2.12
408.563	9.12
409.152	5.12
409.741	-0.88
410.33	0.12
410.919	3.12
411.508	7.12
412.096	6.12
412.685	8.12
413.274	6.12
413.862	4.12
414.451	4.12
415.039	5.12
415.628	8.12
416.216	7.12
416.805	8.12
417.393	7.12
417.981	11.12
418.569	6.12
419.157	10.12
419.745	14.12
420.333	14.12
420.921	15.12
421.509	9.12
422.097	13.12
422.685	18.12
423.272	21.12
423.86	20.12
424.447	21.12
425.035	22.12
425.622	23.12
426.21	28.12
426.797	27.12
427.384	29.12
427.972	28.12
428.559	29.12
429.146	34.12
429.733	37.12
430.32	43.12
430.907	49.12
431.494	44.12
432.08	50.12
432.667	60.12
433.254	63.12
433.84	68.12
434.427	69.12
435.013	73.12
435.6	88.12
436.186	90.12
436.772	100.12
437.359	106.12
437.945	116.12
438.531	120.12
439.117	136.12
439.703	148.12
440.289	158.12
440.875	173.12
441.461	182.12
442.047	196.12
442.632	224.12
443.218	228.12
443.804	254.12
444.389	272.12
444.975	285.12
445.56	305.12
446.145	334.12
446.731	349.12
447.316	372.12
447.901	404.12
448.486	426.12
449.071	464.12
449.656	500.12
450.241	524.12
450.826	577.12
451.411	609.12
451.996	651.12
452.58	714.12
453.165	764.12
453.75	818.12
454.334	881.12
454.919	952.12
455.503	996.12
456.087	1103.12
456.672	1191.12
457.256	1253.12
457.84	1406.12
458.424	1460.12
459.008	1581.12
459.592	1640.12
460.176	1714.12
460.76	1873.12
461.344	1974.12
461.927	2002.12
462.511	2093.12
463.095	2165.12
463.678	2151.12
464.262	2198.12
464.845	2243.12
465.429	2257.12
466.012	2197.12
466.595	2200.12
467.178	2129.12
467.762	2044.12
468.345	1981.12
468.928	1904.12
469.511	1811.12
470.094	1703.12
470.676	1600.12
471.259	1515.12
471.842	1408.12
472.425	1309.12
473.007	1218.12
473.59	1138.12
474.172	1075.12
474.755	992.12
475.337	947.12
475.919	882.12
476.502	823.12
477.084	772.12
477.666	746.12
478.248	702.12
478.83	653.12
479.412	634.12
479.994	621.12
480.576	578.12
481.157	542.12
481.739	528.12
482.321	496.12
482.902	462.12
483.484	448.12
484.065	405.12
484.647	391.12
485.228	372.12
485.809	344.12
486.391	319.12
486.972	302.12
487.553	279.12
488.134	257.12
488.715	243.12
489.296	229.12
489.877	201.12
490.458	208.12
491.038	195.12
491.619	177.12
492.2	172.12
492.78	156.12
493.361	153.12
493.941	145.12
494.522	155.12
495.102	131.12
495.682	121.12
496.262	116.12
496.843	121.12
497.423	117.12
498.003	111.12
498.583	112.12
499.163	114.12
499.742	103.12
500.322	100.12
500.902	100.12
501.482	94.12
502.061	94.12
502.641	93.12
503.22	89.12
503.8	83.12
504.379	86.12
504.958	80.12
505.538	82.12
506.117	77.12
506.696	78.12
507.275	77.12
507.854	75.12
508.433	80.12
509.012	69.12
509.591	77.12
510.169	85.12
510.748	90.12
511.327	86.12
511.905	86.12
512.484	86.12
513.062	94.12
513.641	98.12
514.219	108.12
514.797	111.12
515.375	116.12
515.954	122.12
516.532	123.12
517.11	135.12
517.688	143.12
518.266	153.12
518.843	162.12
519.421	164.12
519.999	175.12
520.577	193.12
521.154	194.12
521.732	202.12
522.309	203.12
522.887	206.12
523.464	225.12
524.041	236.12
524.619	252.12
525.196	251.12
525.773	269.12
526.35	273.12
526.927	274.12
527.504	274.12
528.081	283.12
528.658	286.12
529.235	294.12
529.811	292.12
530.388	296.12
530.964	312.12
531.541	290.12
532.117	298.12
532.694	313.12
533.27	295.12
533.846	305.12
534.423	299.12
534.999	302.12
535.575	296.12
536.151	304.12
536.727	301.12
537.303	302.12
537.879	299.12
538.455	283.12
539.03	296.12
539.606	291.12
540.182	287.12
540.757	289.12
541.333	292.12
541.908	293.12
542.483	279.12
543.059	278.12
543.634	268.12
544.209	265.12
544.784	277.12
545.359	266.12
545.934	259.12
546.509	268.12
547.084	261.12
547.659	247.12
548.234	267.12
548.808	253.12
549.383	254.12
549.958	256.12
550.532	243.12
551.107	243.12
551.681	253.12
552.255	238.12
552.83	247.12
553.404	241.12
553.978	246.12
554.552	240.12
555.126	245.12
555.7	247.12
556.274	242.12
556.848	249.12
557.422	249.12
557.995	250.12
558.569	260.12
559.143	255.12
559.716	254.12
560.29	246.12
560.863	261.12
561.437	263.12
562.01	263.12
562.583	271.12
563.156	278.12
563.729	272.12
564.302	285.12
564.875	287.12
565.448	290.12
566.021	296.12
566.594	302.12
567.167	301.12
567.74	304.12
568.312	303.12
568.885	310.12
569.457	308.12
570.03	307.12
570.602	312.12
571.174	313.12
571.747	313.12
572.319	312.12
572.891	313.12
573.463	323.12
574.035	319.12
574.607	311.12
575.179	325.12
575.751	321.12
576.323	304.12
576.894	304.12
577.466	306.12
578.038	308.12
578.609	316.12
579.181	322.12
579.752	313.12
580.323	306.12
580.895	314.12
581.466	313.12
582.037	310.12
582.608	314.12
583.179	319.12
583.75	321.12
584.321	313.12
584.892	324.12
585.463	315.12
586.033	320.12
586.604	324.12
587.175	329.12
587.745	319.12
588.316	333.12
588.886	324.12
589.457	320.12
590.027	310.12
590.597	328.12
591.167	328.12
591.737	320.12
592.308	332.12
592.878	307.12
593.447	326.12
594.017	315.12
594.587	305.12
595.157	313.12
595.727	316.12
596.296	296.12
596.866	308.12
597.435	297.12
598.005	294.12
598.574	309.12
599.143	303.12
599.713	294.12
600.282	294.12
600.851	283.12
601.42	288.12
601.989	298.12
602.558	283.12
603.127	294.12
603.696	290.12
604.265	283.12
604.833	293.12
605.402	288.12
605.971	289.12
606.539	288.12
607.108	286.12
607.676	280.12
608.244	281.12
608.813	277.12
609.381	280.12
609.949	289.12
610.517	287.12
611.085	271.12
611.653	273.12
612.221	275.12
612.789	283.12
613.357	270.12
613.924	269.12
614.492	268.12
615.06	272.12
615.627	276.12
616.195	275.12
616.762	275.12
617.329	289.12
617.897	269.12
618.464	268.12
619.031	278.12
619.598	268.12
620.165	271.12
620.732	258.12
621.299	264.12
621.866	273.12
622.433	273.12
623	267.12
623.566	267.12
624.133	257.12
624.7	260.12
625.266	260.12
625.832	259.12
626.399	251.12
626.965	253.12
627.531	260.12
628.098	258.12
628.664	263.12
629.23	241.12
629.796	248.12
630.362	254.12
630.928	262.12
631.493	240.12
632.059	244.12
632.625	243.12
633.19	240.12
633.756	252.12
634.322	245.12
634.887	241.12
635.452	237.12
636.018	237.12
636.583	236.12
637.148	228.12
637.713	232.12
638.278	222.12
638.843	228.12
639.408	233.12
639.973	231.12
640.538	220.12
641.103	215.12
641.667	225.12
642.232	218.12
642.797	217.12
643.361	214.12
643.926	213.12
644.49	206.12
645.054	211.12
645.619	206.12
646.183	208.12
646.747	209.12
647.311	196.12
647.875	191.12
648.439	194.12
649.003	191.12
649.567	188.12
650.131	195.12
650.694	188.12
651.258	188.12
651.822	184.12
652.385	182.12
652.949	179.12
653.512	177.12
654.075	175.12
654.639	173.12
655.202	177.12
655.765	176.12
656.328	177.12
656.891	179.12
657.454	171.12
658.017	171.12
658.58	167.12
659.143	171.12
659.705	168.12
660.268	160.12
660.83	158.12
661.393	165.12
661.955	165.12
662.518	155.12
663.08	154.12
663.643	165.12
664.205	154.12
664.767	151.12
665.329	143.12
665.891	155.12
666.453	152.12
667.015	146.12
667.577	141.12
668.139	133.12
668.7	144.12
669.262	131.12
669.824	130.12
670.385	134.12
670.947	133.12
671.508	133.12
672.069	125.12
672.631	133.12
673.192	125.12
673.753	131.12
674.314	132.12
674.875	125.12
675.436	119.12
675.997	120.12
676.558	123.12
677.119	120.12
677.679	126.12
678.24	120.12
678.801	121.12
679.361	128.12
679.922	124.12
680.482	121.12
681.042	123.12
681.603	121.12
682.163	130.12
682.723	127.12
683.283	116.12
683.843	121.12
684.403	109.12
684.963	111.12
685.523	112.12
686.083	109.12
686.642	110.12
687.202	110.12
687.762	106.12
688.321	95.12
688.881	102.12
689.44	106.12
690	93.12
690.559	98.12
691.118	99.12
691.677	95.12
692.236	96.12
692.795	103.12
693.354	99.12
693.913	97.12
694.472	91.12
695.031	95.12
695.59	88.12
696.148	90.12
696.707	96.12
697.265	90.12
697.824	82.12
698.382	84.12
698.941	88.12
699.499	86.12
700.057	76.12
700.615	74.12
701.173	74.12
701.731	74.12
702.289	76.12
702.847	73.12
703.405	70.12
703.963	74.12
704.521	68.12
705.078	76.12
705.636	73.12
706.194	71.12
706.751	71.12
707.308	77.12
707.866	70.12
708.423	67.12
708.98	67.12
709.537	66.12
710.095	66.12
710.652	65.12
711.209	62.12
711.765	58.12
712.322	65.12
712.879	62.12
713.436	62.12
713.992	56.12
714.549	52.12
715.106	60.12
715.662	54.12
716.218	54.12
716.775	56.12
717.331	57.12
717.887	48.12
718.443	50.12
719	50.12
719.556	50.12
720.112	55.12
720.667	51.12
721.223	47.12
721.779	48.12
722.335	43.12
722.89	52.12
723.446	42.12
724.002	51.12
724.557	46.12
725.112	44.12
725.668	46.12
726.223	42.12
726.778	41.12
727.333	42.12
727.888	42.12
728.443	37.12
728.998	43.12
729.553	42.12
730.108	43.12
730.663	42.12
731.218	39.12
731.772	39.12
732.327	37.12
732.881	39.12
733.436	33.12
733.99	36.12
734.545	40.12
735.099	35.12
735.653	34.12
736.207	36.12
736.761	38.12
737.315	32.12
737.869	35.12
738.423	33.12
738.977	30.12
739.531	33.12
740.084	35.12
740.638	30.12
741.192	30.12
741.745	28.12
742.299	25.12
742.852	29.12
743.405	30.12
743.959	29.12
744.512	29.12
745.065	27.12
745.618	29.12
746.171	24.12
746.724	30.12
747.277	32.12
747.83	26.12
748.382	27.12
748.935	23.12
749.488	23.12
750.04	25.12
750.593	28.12
751.145	22.12
751.698	22.12
752.25	26.12
752.802	25.12
753.354	25.12
753.906	24.12
754.458	23.12
755.01	20.12
755.562	19.12
756.114	21.12
756.666	20.12
757.218	21.12
757.769	20.12
758.321	16.12
758.873	22.12
759.424	17.12
759.975	20.12
760.527	22.12
761.078	16.12
761.629	16.12
762.181	17.12
762.732	17.12
763.283	17.12
763.834	23.12
764.385	19.12
764.935	18.12
765.486	19.12
766.037	18.12
766.588	15.12
767.138	18.12
767.689	18.12
768.239	13.12
768.79	19.12
769.34	14.12
769.89	17.12
770.44	16.12
770.991	23.12
771.541	17.12
772.091	11.12
772.641	15.12
773.191	12.12
773.74	14.12
774.29	13.12
774.84	17.12
775.39	17.12
775.939	16.12
776.489	14.12
777.038	14.12
777.588	15.12
778.137	15.12
778.686	10.12
779.235	14.12
779.784	14.12
780.334	14.12
780.883	14.12
781.431	16.12
781.98	16.12
782.529	9.12
783.078	14.12
783.627	10.12
784.175	9.12
784.724	13.12
785.272	10.12
785.821	10.12
786.369	11.12
786.917	11.12
787.466	6.12
788.014	13.12
788.562	12.12
789.11	8.12
789.658	9.12
790.206	13.12
790.754	13.12
791.302	14.12
791.849	11.12
792.397	9.12
792.945	11.12
793.492	11.12
794.04	11.12
794.587	9.12
795.134	9.12
795.682	14.12
796.229	4.12
796.776	5.12
797.323	9.12
797.87	3.12
798.417	6.12
798.964	5.12
799.511	5.12
800.058	4.12
800.604	5.12
801.151	5.12
801.698	10.12
802.244	9.12
802.791	9.12
803.337	8.12
803.883	7.12
804.43	11.12
804.976	7.12
805.522	9.12
806.068	5.12
806.614	5.12
807.16	5.12
807.706	7.12
808.252	1.12
808.797	3.12
809.343	8.12
809.889	6.12
810.434	6.12
810.98	6.12
811.525	6.12
812.071	5.12
812.616	6.12
813.161	7.12
813.706	5.12
814.252	3.12
814.797	9.12
815.342	3.12
815.886	4.12
816.431	5.12
816.976	3.12
817.521	5.12
818.066	3.12
818.61	6.12
819.155	5.12
819.699	7.12
820.244	4.12
820.788	3.12
821.332	4.12
821.876	5.12
822.421	3.12
822.965	4.12
823.509	5.12
824.053	6.12
824.597	3.12
825.14	2.12
825.684	3.12
826.228	4.12
826.771	1.12
827.315	6.12
827.859	3.12
828.402	7.12
828.945	3.12
829.489	2.12
830.032	3.12
830.575	2.12
831.118	7.12
831.661	-1.88
832.204	7.12
832.747	-0.88
833.29	4.12
833.833	0.12
834.376	4.12
834.918	4.12
835.461	5.12
836.004	1.12
836.546	4.12
837.088	7.12
837.631	5.12
838.173	0.12
838.715	1.12
839.257	1.12
839.8	4.12
840.342	-2.88
840.884	4.12
841.425	1.12
841.967	1.12
842.509	4.12
843.051	0.12
843.592	-0.88
844.134	0.12
844.676	3.12
845.217	1.12
845.758	0.12
846.3	0.12
846.841	-0.88
847.382	0.12
847.923	1.12
848.464	1.12
849.005	2.12
849.546	2.12
850.087	2.12
850.628	1.12
851.169	5.12
851.709	6.12
852.25	7.12
852.791	2.12
853.331	0.12
853.871	4.12
854.412	2.12
854.952	0.12
855.492	-0.88
856.033	-1.88
856.573	2.12
857.113	6.12
857.653	3.12
858.193	3.12
858.732	6.12
859.272	5.12
859.812	-1.88
860.352	1.12
860.891	0.12
861.431	5.12
861.97	-0.88
862.509	3.12
863.049	-2.88
863.588	0.12
864.127	1.12
864.666	-0.88
865.205	2.12
865.744	0.12
866.283	2.12
866.822	3.12
867.361	3.12
867.9	2.12
868.438	0.12
868.977	2.12
869.516	2.12
870.054	3.12
870.593	-1.88
871.131	0.12
871.669	3.12
872.207	3.12
872.746	2.12
873.284	4.12
873.822	-0.88
874.36	-2.88
874.898	3.12
875.435	2.12
875.973	0.12
876.511	2.12
877.048	2.12
877.586	3.12
878.124	-1.88
878.661	0.12
879.198	2.12
879.736	-0.88
880.273	-0.88
880.81	3.12
881.347	1.12
881.884	-2.88
882.421	4.12
882.958	-2.88
883.495	2.12
884.032	-0.88
884.569	-0.88
885.105	4.12
885.642	-3.88
886.178	-0.88
886.715	-0.88
887.251	5.12
887.788	2.12
888.324	-4.88
888.86	-0.88
889.396	1.12
889.932	-1.88
890.468	2.12
891.004	3.12
891.54	3.12
892.076	-2.88
892.612	0.12
893.147	4.12
893.683	-2.88
894.219	-4.88
894.754	0.12
895.29	0.12
895.825	-2.88
896.36	-2.88
896.896	1.12
897.431	-0.88
897.966	1.12
898.501	0.12
899.036	2.12
899.571	2.12
900.106	0.12
900.64	0.12
901.175	-2.88
901.71	2.12
902.244	-0.88
902.779	0.12
903.313	0.12
903.848	2.12
904.382	0.12
904.916	1.12
905.45	5.12
905.985	-0.88
906.519	4.12
907.053	-1.88
907.587	0.12
908.12	3.12
908.654	-1.88
909.188	1.12
909.722	2.12
910.255	-3.88
910.789	1.12
911.322	0.12
911.856	0.12
912.389	0.12
912.922	1.12
913.456	-0.88
913.989	-1.88
914.522	1.12
915.055	2.12
915.588	-3.88
916.121	-0.88
916.653	0.12
917.186	0.12
917.719	2.12
918.252	2.12
918.784	-1.88
919.317	3.12
919.849	1.12
920.381	0.12
920.914	1.12
921.446	-0.88
921.978	1.12
922.51	0.12
923.042	-1.88
923.574	-2.88
924.106	-0.88
924.638	3.12
925.17	3.12
925.701	-0.88
926.233	1.12
926.765	0.12
927.296	2.12
927.828	3.12
928.359	2.12
928.89	-2.88
929.422	1.12
929.953	0.12
930.484	2.12
931.015	-3.88
931.546	-3.88
932.077	-1.88
932.608	3.12
933.138	-2.88
933.669	-3.88
934.2	-2.88
934.73	-1.88
935.261	-1.88
