Created by Instrument,
cm-1,%T
4000.00,88.38
3999.00,88.37
3998.00,88.36
3997.00,88.36
3996.00,88.35
3995.00,88.34
3994.00,88.34
3993.00,88.33
3992.00,88.32
3991.00,88.32
3990.00,88.32
3989.00,88.32
3988.00,88.31
3987.00,88.30
3986.00,88.30
3985.00,88.30
3984.00,88.30
3983.00,88.29
3982.00,88.28
3981.00,88.28
3980.00,88.27
3979.00,88.27
3978.00,88.27
3977.00,88.27
3976.00,88.26
3975.00,88.25
3974.00,88.24
3973.00,88.23
3972.00,88.22
3971.00,88.22
3970.00,88.21
3969.00,88.21
3968.00,88.21
3967.00,88.21
3966.00,88.21
3965.00,88.22
3964.00,88.23
3963.00,88.24
3962.00,88.24
3961.00,88.24
3960.00,88.24
3959.00,88.22
3958.00,88.21
3957.00,88.20
3956.00,88.19
3955.00,88.20
3954.00,88.21
3953.00,88.22
3952.00,88.22
3951.00,88.20
3950.00,88.19
3949.00,88.18
3948.00,88.18
3947.00,88.18
3946.00,88.18
3945.00,88.17
3944.00,88.18
3943.00,88.19
3942.00,88.19
3941.00,88.19
3940.00,88.19
3939.00,88.18
3938.00,88.18
3937.00,88.18
3936.00,88.18
3935.00,88.19
3934.00,88.19
3933.00,88.18
3932.00,88.17
3931.00,88.15
3930.00,88.14
3929.00,88.14
3928.00,88.14
3927.00,88.15
3926.00,88.15
3925.00,88.15
3924.00,88.15
3923.00,88.15
3922.00,88.15
3921.00,88.15
3920.00,88.15
3919.00,88.15
3918.00,88.14
3917.00,88.13
3916.00,88.13
3915.00,88.13
3914.00,88.13
3913.00,88.13
3912.00,88.13
3911.00,88.13
3910.00,88.12
3909.00,88.12
3908.00,88.12
3907.00,88.12
3906.00,88.12
3905.00,88.11
3904.00,88.11
3903.00,88.10
3902.00,88.09
3901.00,88.08
3900.00,88.07
3899.00,88.06
3898.00,88.05
3897.00,88.06
3896.00,88.08
3895.00,88.09
3894.00,88.09
3893.00,88.08
3892.00,88.08
3891.00,88.08
3890.00,88.08
3889.00,88.07
3888.00,88.06
3887.00,88.06
3886.00,88.07
3885.00,88.07
3884.00,88.06
3883.00,88.05
3882.00,88.04
3881.00,88.04
3880.00,88.05
3879.00,88.06
3878.00,88.07
3877.00,88.06
3876.00,88.06
3875.00,88.07
3874.00,88.07
3873.00,88.06
3872.00,88.04
3871.00,88.03
3870.00,88.04
3869.00,88.05
3868.00,88.04
3867.00,88.03
3866.00,88.03
3865.00,88.05
3864.00,88.05
3863.00,88.05
3862.00,88.04
3861.00,88.04
3860.00,88.04
3859.00,88.04
3858.00,88.04
3857.00,88.03
3856.00,88.00
3855.00,87.99
3854.00,87.99
3853.00,88.00
3852.00,88.00
3851.00,88.00
3850.00,88.01
3849.00,88.03
3848.00,88.04
3847.00,88.05
3846.00,88.06
3845.00,88.07
3844.00,88.07
3843.00,88.06
3842.00,88.05
3841.00,88.04
3840.00,88.02
3839.00,88.01
3838.00,88.01
3837.00,88.02
3836.00,88.02
3835.00,88.02
3834.00,88.02
3833.00,88.02
3832.00,88.02
3831.00,88.03
3830.00,88.05
3829.00,88.06
3828.00,88.06
3827.00,88.06
3826.00,88.06
3825.00,88.05
3824.00,88.04
3823.00,88.03
3822.00,88.04
3821.00,88.06
3820.00,88.04
3819.00,88.02
3818.00,88.00
3817.00,88.00
3816.00,88.02
3815.00,88.04
3814.00,88.04
3813.00,88.05
3812.00,88.06
3811.00,88.08
3810.00,88.08
3809.00,88.08
3808.00,88.08
3807.00,88.08
3806.00,88.08
3805.00,88.06
3804.00,88.05
3803.00,88.04
3802.00,88.05
3801.00,88.05
3800.00,88.04
3799.00,88.03
3798.00,88.02
3797.00,88.03
3796.00,88.04
3795.00,88.06
3794.00,88.07
3793.00,88.08
3792.00,88.09
3791.00,88.10
3790.00,88.10
3789.00,88.10
3788.00,88.09
3787.00,88.09
3786.00,88.10
3785.00,88.10
3784.00,88.10
3783.00,88.10
3782.00,88.10
3781.00,88.11
3780.00,88.11
3779.00,88.11
3778.00,88.11
3777.00,88.10
3776.00,88.10
3775.00,88.11
3774.00,88.12
3773.00,88.12
3772.00,88.11
3771.00,88.10
3770.00,88.11
3769.00,88.11
3768.00,88.10
3767.00,88.10
3766.00,88.09
3765.00,88.10
3764.00,88.10
3763.00,88.10
3762.00,88.10
3761.00,88.10
3760.00,88.10
3759.00,88.09
3758.00,88.08
3757.00,88.08
3756.00,88.08
3755.00,88.09
3754.00,88.09
3753.00,88.09
3752.00,88.09
3751.00,88.09
3750.00,88.09
3749.00,88.10
3748.00,88.10
3747.00,88.09
3746.00,88.09
3745.00,88.10
3744.00,88.13
3743.00,88.15
3742.00,88.15
3741.00,88.17
3740.00,88.19
3739.00,88.21
3738.00,88.22
3737.00,88.24
3736.00,88.26
3735.00,88.26
3734.00,88.27
3733.00,88.29
3732.00,88.31
3731.00,88.34
3730.00,88.36
3729.00,88.37
3728.00,88.38
3727.00,88.40
3726.00,88.41
3725.00,88.40
3724.00,88.39
3723.00,88.36
3722.00,88.34
3721.00,88.31
3720.00,88.28
3719.00,88.24
3718.00,88.25
3717.00,88.31
3716.00,88.38
3715.00,88.42
3714.00,88.39
3713.00,88.32
3712.00,88.25
3711.00,88.21
3710.00,88.22
3709.00,88.23
3708.00,88.26
3707.00,88.29
3706.00,88.32
3705.00,88.32
3704.00,88.32
3703.00,88.32
3702.00,88.33
3701.00,88.33
3700.00,88.33
3699.00,88.31
3698.00,88.30
3697.00,88.30
3696.00,88.29
3695.00,88.30
3694.00,88.29
3693.00,88.28
3692.00,88.25
3691.00,88.22
3690.00,88.19
3689.00,88.16
3688.00,88.16
3687.00,88.14
3686.00,88.14
3685.00,88.13
3684.00,88.12
3683.00,88.11
3682.00,88.10
3681.00,88.08
3680.00,88.06
3679.00,88.04
3678.00,88.01
3677.00,87.98
3676.00,87.97
3675.00,87.97
3674.00,87.96
3673.00,87.95
3672.00,87.95
3671.00,87.94
3670.00,87.94
3669.00,87.93
3668.00,87.92
3667.00,87.93
3666.00,87.93
3665.00,87.93
3664.00,87.93
3663.00,87.92
3662.00,87.90
3661.00,87.88
3660.00,87.87
3659.00,87.87
3658.00,87.85
3657.00,87.83
3656.00,87.81
3655.00,87.79
3654.00,87.77
3653.00,87.75
3652.00,87.73
3651.00,87.73
3650.00,87.73
3649.00,87.73
3648.00,87.72
3647.00,87.72
3646.00,87.72
3645.00,87.72
3644.00,87.71
3643.00,87.71
3642.00,87.71
3641.00,87.71
3640.00,87.71
3639.00,87.71
3638.00,87.71
3637.00,87.71
3636.00,87.70
3635.00,87.70
3634.00,87.70
3633.00,87.70
3632.00,87.69
3631.00,87.66
3630.00,87.62
3629.00,87.60
3628.00,87.59
3627.00,87.59
3626.00,87.58
3625.00,87.57
3624.00,87.55
3623.00,87.53
3622.00,87.50
3621.00,87.47
3620.00,87.44
3619.00,87.40
3618.00,87.36
3617.00,87.31
3616.00,87.27
3615.00,87.26
3614.00,87.26
3613.00,87.25
3612.00,87.18
3611.00,87.10
3610.00,87.04
3609.00,87.00
3608.00,86.98
3607.00,86.96
3606.00,86.94
3605.00,86.91
3604.00,86.89
3603.00,86.86
3602.00,86.82
3601.00,86.78
3600.00,86.74
3599.00,86.69
3598.00,86.65
3597.00,86.61
3596.00,86.55
3595.00,86.50
3594.00,86.44
3593.00,86.38
3592.00,86.31
3591.00,86.25
3590.00,86.19
3589.00,86.14
3588.00,86.08
3587.00,86.02
3586.00,85.96
3585.00,85.91
3584.00,85.87
3583.00,85.83
3582.00,85.78
3581.00,85.72
3580.00,85.67
3579.00,85.63
3578.00,85.59
3577.00,85.54
3576.00,85.49
3575.00,85.43
3574.00,85.37
3573.00,85.32
3572.00,85.27
3571.00,85.23
3570.00,85.17
3569.00,85.11
3568.00,85.05
3567.00,85.00
3566.00,84.97
3565.00,84.94
3564.00,84.92
3563.00,84.89
3562.00,84.85
3561.00,84.80
3560.00,84.76
3559.00,84.73
3558.00,84.70
3557.00,84.68
3556.00,84.65
3555.00,84.62
3554.00,84.59
3553.00,84.57
3552.00,84.54
3551.00,84.52
3550.00,84.49
3549.00,84.46
3548.00,84.42
3547.00,84.39
3546.00,84.37
3545.00,84.35
3544.00,84.33
3543.00,84.33
3542.00,84.32
3541.00,84.31
3540.00,84.30
3539.00,84.29
3538.00,84.27
3537.00,84.25
3536.00,84.24
3535.00,84.25
3534.00,84.25
3533.00,84.24
3532.00,84.22
3531.00,84.21
3530.00,84.22
3529.00,84.22
3528.00,84.22
3527.00,84.22
3526.00,84.21
3525.00,84.21
3524.00,84.21
3523.00,84.22
3522.00,84.23
3521.00,84.24
3520.00,84.25
3519.00,84.26
3518.00,84.27
3517.00,84.27
3516.00,84.26
3515.00,84.26
3514.00,84.26
3513.00,84.27
3512.00,84.28
3511.00,84.30
3510.00,84.32
3509.00,84.33
3508.00,84.34
3507.00,84.33
3506.00,84.32
3505.00,84.31
3504.00,84.31
3503.00,84.31
3502.00,84.31
3501.00,84.32
3500.00,84.32
3499.00,84.32
3498.00,84.32
3497.00,84.33
3496.00,84.33
3495.00,84.34
3494.00,84.33
3493.00,84.32
3492.00,84.31
3491.00,84.30
3490.00,84.28
3489.00,84.27
3488.00,84.26
3487.00,84.24
3486.00,84.22
3485.00,84.21
3484.00,84.21
3483.00,84.20
3482.00,84.19
3481.00,84.18
3480.00,84.16
3479.00,84.16
3478.00,84.17
3477.00,84.17
3476.00,84.16
3475.00,84.14
3474.00,84.11
3473.00,84.09
3472.00,84.07
3471.00,84.04
3470.00,84.01
3469.00,83.97
3468.00,83.94
3467.00,83.93
3466.00,83.93
3465.00,83.93
3464.00,83.93
3463.00,83.90
3462.00,83.88
3461.00,83.85
3460.00,83.83
3459.00,83.81
3458.00,83.80
3457.00,83.79
3456.00,83.77
3455.00,83.76
3454.00,83.74
3453.00,83.73
3452.00,83.72
3451.00,83.70
3450.00,83.69
3449.00,83.66
3448.00,83.65
3447.00,83.64
3446.00,83.63
3445.00,83.61
3444.00,83.59
3443.00,83.56
3442.00,83.53
3441.00,83.50
3440.00,83.48
3439.00,83.46
3438.00,83.43
3437.00,83.41
3436.00,83.39
3435.00,83.38
3434.00,83.37
3433.00,83.36
3432.00,83.35
3431.00,83.33
3430.00,83.32
3429.00,83.31
3428.00,83.30
3427.00,83.29
3426.00,83.28
3425.00,83.27
3424.00,83.26
3423.00,83.25
3422.00,83.23
3421.00,83.21
3420.00,83.20
3419.00,83.19
3418.00,83.19
3417.00,83.18
3416.00,83.17
3415.00,83.15
3414.00,83.13
3413.00,83.11
3412.00,83.09
3411.00,83.08
3410.00,83.07
3409.00,83.06
3408.00,83.06
3407.00,83.06
3406.00,83.06
3405.00,83.04
3404.00,83.03
3403.00,83.01
3402.00,82.99
3401.00,82.98
3400.00,82.98
3399.00,82.99
3398.00,83.01
3397.00,83.01
3396.00,83.01
3395.00,82.99
3394.00,82.96
3393.00,82.94
3392.00,82.93
3391.00,82.93
3390.00,82.94
3389.00,82.96
3388.00,82.97
3387.00,82.98
3386.00,82.98
3385.00,82.98
3384.00,82.98
3383.00,82.97
3382.00,82.97
3381.00,82.97
3380.00,82.97
3379.00,82.96
3378.00,82.94
3377.00,82.93
3376.00,82.93
3375.00,82.94
3374.00,82.94
3373.00,82.94
3372.00,82.93
3371.00,82.92
3370.00,82.92
3369.00,82.91
3368.00,82.91
3367.00,82.91
3366.00,82.92
3365.00,82.93
3364.00,82.95
3363.00,82.97
3362.00,82.97
3361.00,82.96
3360.00,82.95
3359.00,82.94
3358.00,82.95
3357.00,82.95
3356.00,82.96
3355.00,82.96
3354.00,82.95
3353.00,82.95
3352.00,82.96
3351.00,82.97
3350.00,82.99
3349.00,83.01
3348.00,83.02
3347.00,83.03
3346.00,83.03
3345.00,83.02
3344.00,83.01
3343.00,83.00
3342.00,83.01
3341.00,83.01
3340.00,83.02
3339.00,83.02
3338.00,83.03
3337.00,83.03
3336.00,83.05
3335.00,83.06
3334.00,83.07
3333.00,83.08
3332.00,83.08
3331.00,83.08
3330.00,83.09
3329.00,83.10
3328.00,83.10
3327.00,83.11
3326.00,83.11
3325.00,83.11
3324.00,83.10
3323.00,83.11
3322.00,83.11
3321.00,83.13
3320.00,83.15
3319.00,83.16
3318.00,83.17
3317.00,83.16
3316.00,83.16
3315.00,83.16
3314.00,83.16
3313.00,83.17
3312.00,83.18
3311.00,83.18
3310.00,83.18
3309.00,83.18
3308.00,83.17
3307.00,83.16
3306.00,83.16
3305.00,83.17
3304.00,83.18
3303.00,83.20
3302.00,83.23
3301.00,83.24
3300.00,83.25
3299.00,83.24
3298.00,83.24
3297.00,83.24
3296.00,83.24
3295.00,83.25
3294.00,83.26
3293.00,83.27
3292.00,83.29
3291.00,83.32
3290.00,83.35
3289.00,83.37
3288.00,83.38
3287.00,83.38
3286.00,83.38
3285.00,83.37
3284.00,83.37
3283.00,83.37
3282.00,83.39
3281.00,83.40
3280.00,83.41
3279.00,83.42
3278.00,83.44
3277.00,83.46
3276.00,83.47
3275.00,83.47
3274.00,83.47
3273.00,83.46
3272.00,83.46
3271.00,83.47
3270.00,83.48
3269.00,83.50
3268.00,83.52
3267.00,83.53
3266.00,83.54
3265.00,83.54
3264.00,83.55
3263.00,83.56
3262.00,83.57
3261.00,83.58
3260.00,83.59
3259.00,83.59
3258.00,83.59
3257.00,83.59
3256.00,83.61
3255.00,83.64
3254.00,83.66
3253.00,83.68
3252.00,83.69
3251.00,83.70
3250.00,83.69
3249.00,83.69
3248.00,83.69
3247.00,83.71
3246.00,83.72
3245.00,83.73
3244.00,83.75
3243.00,83.77
3242.00,83.78
3241.00,83.80
3240.00,83.81
3239.00,83.81
3238.00,83.82
3237.00,83.81
3236.00,83.81
3235.00,83.81
3234.00,83.82
3233.00,83.84
3232.00,83.86
3231.00,83.88
3230.00,83.90
3229.00,83.90
3228.00,83.90
3227.00,83.90
3226.00,83.90
3225.00,83.90
3224.00,83.90
3223.00,83.91
3222.00,83.91
3221.00,83.90
3220.00,83.91
3219.00,83.92
3218.00,83.93
3217.00,83.95
3216.00,83.96
3215.00,83.97
3214.00,83.98
3213.00,83.99
3212.00,83.99
3211.00,83.99
3210.00,84.00
3209.00,84.01
3208.00,84.02
3207.00,84.04
3206.00,84.06
3205.00,84.06
3204.00,84.07
3203.00,84.08
3202.00,84.08
3201.00,84.09
3200.00,84.11
3199.00,84.12
3198.00,84.14
3197.00,84.16
3196.00,84.17
3195.00,84.19
3194.00,84.20
3193.00,84.22
3192.00,84.24
3191.00,84.26
3190.00,84.28
3189.00,84.30
3188.00,84.32
3187.00,84.35
3186.00,84.37
3185.00,84.39
3184.00,84.40
3183.00,84.41
3182.00,84.43
3181.00,84.44
3180.00,84.46
3179.00,84.47
3178.00,84.48
3177.00,84.49
3176.00,84.51
3175.00,84.53
3174.00,84.55
3173.00,84.57
3172.00,84.60
3171.00,84.63
3170.00,84.65
3169.00,84.67
3168.00,84.68
3167.00,84.70
3166.00,84.71
3165.00,84.73
3164.00,84.75
3163.00,84.78
3162.00,84.80
3161.00,84.82
3160.00,84.83
3159.00,84.84
3158.00,84.85
3157.00,84.87
3156.00,84.88
3155.00,84.91
3154.00,84.93
3153.00,84.95
3152.00,84.97
3151.00,85.00
3150.00,85.02
3149.00,85.03
3148.00,85.04
3147.00,85.05
3146.00,85.07
3145.00,85.08
3144.00,85.10
3143.00,85.10
3142.00,85.10
3141.00,85.09
3140.00,85.09
3139.00,85.10
3138.00,85.11
3137.00,85.13
3136.00,85.15
3135.00,85.17
3134.00,85.18
3133.00,85.19
3132.00,85.20
3131.00,85.21
3130.00,85.22
3129.00,85.22
3128.00,85.22
3127.00,85.23
3126.00,85.23
3125.00,85.23
3124.00,85.23
3123.00,85.23
3122.00,85.21
3121.00,85.19
3120.00,85.16
3119.00,85.15
3118.00,85.13
3117.00,85.12
3116.00,85.11
3115.00,85.10
3114.00,85.09
3113.00,85.07
3112.00,85.05
3111.00,85.03
3110.00,85.00
3109.00,84.97
3108.00,84.93
3107.00,84.89
3106.00,84.85
3105.00,84.81
3104.00,84.76
3103.00,84.71
3102.00,84.66
3101.00,84.60
3100.00,84.54
3099.00,84.49
3098.00,84.44
3097.00,84.39
3096.00,84.35
3095.00,84.30
3094.00,84.25
3093.00,84.20
3092.00,84.14
3091.00,84.09
3090.00,84.05
3089.00,84.01
3088.00,83.98
3087.00,83.95
3086.00,83.91
3085.00,83.87
3084.00,83.85
3083.00,83.83
3082.00,83.83
3081.00,83.83
3080.00,83.83
3079.00,83.84
3078.00,83.85
3077.00,83.87
3076.00,83.89
3075.00,83.92
3074.00,83.93
3073.00,83.93
3072.00,83.92
3071.00,83.92
3070.00,83.91
3069.00,83.90
3068.00,83.88
3067.00,83.87
3066.00,83.85
3065.00,83.84
3064.00,83.83
3063.00,83.82
3062.00,83.81
3061.00,83.79
3060.00,83.76
3059.00,83.72
3058.00,83.68
3057.00,83.63
3056.00,83.59
3055.00,83.56
3054.00,83.53
3053.00,83.50
3052.00,83.48
3051.00,83.49
3050.00,83.52
3049.00,83.57
3048.00,83.65
3047.00,83.74
3046.00,83.85
3045.00,83.96
3044.00,84.09
3043.00,84.20
3042.00,84.30
3041.00,84.38
3040.00,84.43
3039.00,84.47
3038.00,84.50
3037.00,84.50
3036.00,84.49
3035.00,84.47
3034.00,84.43
3033.00,84.39
3032.00,84.36
3031.00,84.33
3030.00,84.30
3029.00,84.29
3028.00,84.28
3027.00,84.30
3026.00,84.34
3025.00,84.39
3024.00,84.44
3023.00,84.49
3022.00,84.53
3021.00,84.57
3020.00,84.62
3019.00,84.66
3018.00,84.69
3017.00,84.72
3016.00,84.74
3015.00,84.75
3014.00,84.76
3013.00,84.78
3012.00,84.80
3011.00,84.83
3010.00,84.86
3009.00,84.89
3008.00,84.91
3007.00,84.93
3006.00,84.93
3005.00,84.92
3004.00,84.89
3003.00,84.85
3002.00,84.79
3001.00,84.72
3000.00,84.64
2999.00,84.54
2998.00,84.43
2997.00,84.30
2996.00,84.16
2995.00,84.01
2994.00,83.85
2993.00,83.68
2992.00,83.51
2991.00,83.33
2990.00,83.14
2989.00,82.96
2988.00,82.79
2987.00,82.64
2986.00,82.50
2985.00,82.38
2984.00,82.26
2983.00,82.16
2982.00,82.07
2981.00,81.98
2980.00,81.89
2979.00,81.80
2978.00,81.69
2977.00,81.56
2976.00,81.41
2975.00,81.24
2974.00,81.04
2973.00,80.83
2972.00,80.60
2971.00,80.37
2970.00,80.15
2969.00,79.96
2968.00,79.78
2967.00,79.64
2966.00,79.52
2965.00,79.43
2964.00,79.37
2963.00,79.33
2962.00,79.32
2961.00,79.34
2960.00,79.37
2959.00,79.43
2958.00,79.51
2957.00,79.61
2956.00,79.73
2955.00,79.85
2954.00,79.99
2953.00,80.13
2952.00,80.28
2951.00,80.44
2950.00,80.59
2949.00,80.73
2948.00,80.84
2947.00,80.91
2946.00,80.95
2945.00,80.96
2944.00,80.95
2943.00,80.90
2942.00,80.83
2941.00,80.74
2940.00,80.64
2939.00,80.55
2938.00,80.44
2937.00,80.32
2936.00,80.19
2935.00,80.04
2934.00,79.88
2933.00,79.72
2932.00,79.54
2931.00,79.38
2930.00,79.21
2929.00,79.07
2928.00,78.94
2927.00,78.85
2926.00,78.78
2925.00,78.76
2924.00,78.77
2923.00,78.82
2922.00,78.92
2921.00,79.06
2920.00,79.23
2919.00,79.44
2918.00,79.66
2917.00,79.86
2916.00,80.03
2915.00,80.13
2914.00,80.17
2913.00,80.17
2912.00,80.14
2911.00,80.11
2910.00,80.08
2909.00,80.06
2908.00,80.04
2907.00,80.03
2906.00,80.03
2905.00,80.05
2904.00,80.08
2903.00,80.12
2902.00,80.17
2901.00,80.23
2900.00,80.29
2899.00,80.36
2898.00,80.44
2897.00,80.50
2896.00,80.56
2895.00,80.60
2894.00,80.63
2893.00,80.66
2892.00,80.69
2891.00,80.71
2890.00,80.73
2889.00,80.74
2888.00,80.73
2887.00,80.72
2886.00,80.70
2885.00,80.68
2884.00,80.66
2883.00,80.64
2882.00,80.60
2881.00,80.55
2880.00,80.50
2879.00,80.45
2878.00,80.38
2877.00,80.28
2876.00,80.16
2875.00,80.02
2874.00,79.86
2873.00,79.69
2872.00,79.54
2871.00,79.40
2870.00,79.28
2869.00,79.20
2868.00,79.14
2867.00,79.13
2866.00,79.17
2865.00,79.26
2864.00,79.41
2863.00,79.59
2862.00,79.79
2861.00,79.98
2860.00,80.18
2859.00,80.36
2858.00,80.51
2857.00,80.65
2856.00,80.77
2855.00,80.87
2854.00,80.97
2853.00,81.08
2852.00,81.20
2851.00,81.35
2850.00,81.51
2849.00,81.68
2848.00,81.86
2847.00,82.02
2846.00,82.17
2845.00,82.29
2844.00,82.40
2843.00,82.50
2842.00,82.59
2841.00,82.68
2840.00,82.78
2839.00,82.87
2838.00,82.96
2837.00,83.05
2836.00,83.12
2835.00,83.18
2834.00,83.25
2833.00,83.31
2832.00,83.36
2831.00,83.40
2830.00,83.42
2829.00,83.44
2828.00,83.44
2827.00,83.44
2826.00,83.43
2825.00,83.41
2824.00,83.37
2823.00,83.33
2822.00,83.28
2821.00,83.22
2820.00,83.16
2819.00,83.09
2818.00,83.03
2817.00,82.97
2816.00,82.92
2815.00,82.88
2814.00,82.86
2813.00,82.85
2812.00,82.86
2811.00,82.89
2810.00,82.94
2809.00,83.00
2808.00,83.07
2807.00,83.16
2806.00,83.25
2805.00,83.35
2804.00,83.46
2803.00,83.58
2802.00,83.70
2801.00,83.81
2800.00,83.91
2799.00,83.99
2798.00,84.06
2797.00,84.13
2796.00,84.20
2795.00,84.26
2794.00,84.31
2793.00,84.35
2792.00,84.38
2791.00,84.40
2790.00,84.43
2789.00,84.45
2788.00,84.47
2787.00,84.49
2786.00,84.52
2785.00,84.54
2784.00,84.56
2783.00,84.57
2782.00,84.59
2781.00,84.60
2780.00,84.62
2779.00,84.65
2778.00,84.67
2777.00,84.69
2776.00,84.72
2775.00,84.74
2774.00,84.77
2773.00,84.79
2772.00,84.82
2771.00,84.86
2770.00,84.89
2769.00,84.91
2768.00,84.93
2767.00,84.96
2766.00,84.98
2765.00,85.00
2764.00,85.01
2763.00,85.03
2762.00,85.05
2761.00,85.06
2760.00,85.07
2759.00,85.09
2758.00,85.09
2757.00,85.10
2756.00,85.10
2755.00,85.11
2754.00,85.12
2753.00,85.14
2752.00,85.16
2751.00,85.17
2750.00,85.18
2749.00,85.19
2748.00,85.20
2747.00,85.21
2746.00,85.22
2745.00,85.22
2744.00,85.22
2743.00,85.22
2742.00,85.23
2741.00,85.23
2740.00,85.23
2739.00,85.23
2738.00,85.23
2737.00,85.22
2736.00,85.22
2735.00,85.22
2734.00,85.22
2733.00,85.21
2732.00,85.19
2731.00,85.17
2730.00,85.16
2729.00,85.14
2728.00,85.13
2727.00,85.12
2726.00,85.11
2725.00,85.10
2724.00,85.09
2723.00,85.08
2722.00,85.07
2721.00,85.06
2720.00,85.04
2719.00,85.03
2718.00,85.02
2717.00,85.01
2716.00,85.00
2715.00,84.99
2714.00,84.98
2713.00,84.97
2712.00,84.95
2711.00,84.94
2710.00,84.93
2709.00,84.93
2708.00,84.92
2707.00,84.92
2706.00,84.92
2705.00,84.92
2704.00,84.91
2703.00,84.90
2702.00,84.89
2701.00,84.89
2700.00,84.89
2699.00,84.89
2698.00,84.90
2697.00,84.91
2696.00,84.91
2695.00,84.92
2694.00,84.93
2693.00,84.95
2692.00,84.96
2691.00,84.99
2690.00,85.01
2689.00,85.02
2688.00,85.04
2687.00,85.04
2686.00,85.05
2685.00,85.06
2684.00,85.07
2683.00,85.08
2682.00,85.10
2681.00,85.11
2680.00,85.12
2679.00,85.13
2678.00,85.13
2677.00,85.14
2676.00,85.14
2675.00,85.14
2674.00,85.14
2673.00,85.13
2672.00,85.12
2671.00,85.11
2670.00,85.11
2669.00,85.10
2668.00,85.10
2667.00,85.09
2666.00,85.09
2665.00,85.09
2664.00,85.08
2663.00,85.08
2662.00,85.07
2661.00,85.06
2660.00,85.06
2659.00,85.06
2658.00,85.07
2657.00,85.08
2656.00,85.08
2655.00,85.09
2654.00,85.10
2653.00,85.10
2652.00,85.11
2651.00,85.13
2650.00,85.15
2649.00,85.16
2648.00,85.18
2647.00,85.19
2646.00,85.21
2645.00,85.23
2644.00,85.24
2643.00,85.26
2642.00,85.27
2641.00,85.27
2640.00,85.28
2639.00,85.29
2638.00,85.30
2637.00,85.32
2636.00,85.33
2635.00,85.35
2634.00,85.35
2633.00,85.36
2632.00,85.36
2631.00,85.36
2630.00,85.37
2629.00,85.37
2628.00,85.38
2627.00,85.38
2626.00,85.39
2625.00,85.39
2624.00,85.40
2623.00,85.40
2622.00,85.40
2621.00,85.40
2620.00,85.40
2619.00,85.40
2618.00,85.40
2617.00,85.40
2616.00,85.39
2615.00,85.39
2614.00,85.38
2613.00,85.38
2612.00,85.38
2611.00,85.38
2610.00,85.39
2609.00,85.40
2608.00,85.40
2607.00,85.40
2606.00,85.40
2605.00,85.40
2604.00,85.40
2603.00,85.41
2602.00,85.43
2601.00,85.44
2600.00,85.46
2599.00,85.47
2598.00,85.48
2597.00,85.49
2596.00,85.50
2595.00,85.52
2594.00,85.54
2593.00,85.55
2592.00,85.57
2591.00,85.58
2590.00,85.58
2589.00,85.60
2588.00,85.62
2587.00,85.64
2586.00,85.66
2585.00,85.67
2584.00,85.68
2583.00,85.69
2582.00,85.70
2581.00,85.71
2580.00,85.73
2579.00,85.75
2578.00,85.76
2577.00,85.77
2576.00,85.77
2575.00,85.76
2574.00,85.76
2573.00,85.77
2572.00,85.77
2571.00,85.78
2570.00,85.78
2569.00,85.78
2568.00,85.79
2567.00,85.80
2566.00,85.80
2565.00,85.81
2564.00,85.81
2563.00,85.81
2562.00,85.80
2561.00,85.79
2560.00,85.79
2559.00,85.80
2558.00,85.80
2557.00,85.81
2556.00,85.80
2555.00,85.80
2554.00,85.80
2553.00,85.79
2552.00,85.79
2551.00,85.79
2550.00,85.79
2549.00,85.80
2548.00,85.80
2547.00,85.79
2546.00,85.78
2545.00,85.77
2544.00,85.76
2543.00,85.75
2542.00,85.75
2541.00,85.75
2540.00,85.74
2539.00,85.74
2538.00,85.73
2537.00,85.73
2536.00,85.72
2535.00,85.71
2534.00,85.71
2533.00,85.71
2532.00,85.72
2531.00,85.72
2530.00,85.73
2529.00,85.74
2528.00,85.75
2527.00,85.77
2526.00,85.80
2525.00,85.82
2524.00,85.84
2523.00,85.85
2522.00,85.86
2521.00,85.87
2520.00,85.88
2519.00,85.90
2518.00,85.93
2517.00,85.96
2516.00,85.98
2515.00,86.00
2514.00,86.02
2513.00,86.03
2512.00,86.03
2511.00,86.05
2510.00,86.06
2509.00,86.07
2508.00,86.08
2507.00,86.10
2506.00,86.11
2505.00,86.12
2504.00,86.12
2503.00,86.12
2502.00,86.12
2501.00,86.13
2500.00,86.13
2499.00,86.15
2498.00,86.16
2497.00,86.17
2496.00,86.18
2495.00,86.19
2494.00,86.21
2493.00,86.22
2492.00,86.23
2491.00,86.24
2490.00,86.26
2489.00,86.27
2488.00,86.28
2487.00,86.28
2486.00,86.28
2485.00,86.29
2484.00,86.29
2483.00,86.30
2482.00,86.31
2481.00,86.31
2480.00,86.31
2479.00,86.31
2478.00,86.32
2477.00,86.33
2476.00,86.34
2475.00,86.35
2474.00,86.34
2473.00,86.33
2472.00,86.32
2471.00,86.31
2470.00,86.31
2469.00,86.32
2468.00,86.32
2467.00,86.32
2466.00,86.32
2465.00,86.30
2464.00,86.29
2463.00,86.27
2462.00,86.26
2461.00,86.26
2460.00,86.26
2459.00,86.28
2458.00,86.29
2457.00,86.28
2456.00,86.27
2455.00,86.26
2454.00,86.26
2453.00,86.25
2452.00,86.25
2451.00,86.25
2450.00,86.25
2449.00,86.25
2448.00,86.26
2447.00,86.26
2446.00,86.26
2445.00,86.26
2444.00,86.25
2443.00,86.24
2442.00,86.23
2441.00,86.22
2440.00,86.21
2439.00,86.21
2438.00,86.20
2437.00,86.20
2436.00,86.20
2435.00,86.20
2434.00,86.18
2433.00,86.16
2432.00,86.13
2431.00,86.11
2430.00,86.09
2429.00,86.08
2428.00,86.06
2427.00,86.05
2426.00,86.05
2425.00,86.05
2424.00,86.05
2423.00,86.06
2422.00,86.06
2421.00,86.06
2420.00,86.06
2419.00,86.08
2418.00,86.10
2417.00,86.12
2416.00,86.15
2415.00,86.17
2414.00,86.18
2413.00,86.19
2412.00,86.19
2411.00,86.19
2410.00,86.20
2409.00,86.22
2408.00,86.26
2407.00,86.30
2406.00,86.33
2405.00,86.34
2404.00,86.35
2403.00,86.36
2402.00,86.38
2401.00,86.40
2400.00,86.41
2399.00,86.42
2398.00,86.43
2397.00,86.44
2396.00,86.45
2395.00,86.47
2394.00,86.48
2393.00,86.49
2392.00,86.50
2391.00,86.51
2390.00,86.53
2389.00,86.55
2388.00,86.57
2387.00,86.61
2386.00,86.67
2385.00,86.75
2384.00,86.86
2383.00,86.98
2382.00,87.13
2381.00,87.23
2380.00,87.45
2379.00,87.48
2378.00,87.89
2377.00,87.07
2376.00,86.33
2375.00,86.55
2374.00,86.42
2373.00,86.49
2372.00,86.46
2371.00,86.49
2370.00,86.48
2369.00,86.48
2368.00,86.47
2367.00,86.48
2366.00,86.49
2365.00,86.50
2364.00,86.50
2363.00,86.48
2362.00,86.45
2361.00,86.41
2360.00,86.37
2359.00,86.37
2358.00,86.39
2357.00,86.41
2356.00,86.43
2355.00,86.45
2354.00,86.45
2353.00,86.45
2352.00,86.46
2351.00,86.48
2350.00,86.50
2349.00,86.52
2348.00,86.53
2347.00,86.53
2346.00,86.52
2345.00,86.50
2344.00,86.50
2343.00,86.51
2342.00,86.53
2341.00,86.54
2340.00,86.53
2339.00,86.53
2338.00,86.52
2337.00,86.53
2336.00,86.53
2335.00,86.55
2334.00,86.56
2333.00,86.56
2332.00,86.57
2331.00,86.57
2330.00,86.57
2329.00,86.56
2328.00,86.54
2327.00,86.52
2326.00,86.49
2325.00,86.46
2324.00,86.43
2323.00,86.44
2322.00,86.45
2321.00,86.46
2320.00,86.46
2319.00,86.47
2318.00,86.49
2317.00,86.50
2316.00,86.52
2315.00,86.52
2314.00,86.52
2313.00,86.51
2312.00,86.50
2311.00,86.50
2310.00,86.49
2309.00,86.49
2308.00,86.49
2307.00,86.48
2306.00,86.48
2305.00,86.48
2304.00,86.47
2303.00,86.47
2302.00,86.47
2301.00,86.48
2300.00,86.49
2299.00,86.50
2298.00,86.51
2297.00,86.51
2296.00,86.50
2295.00,86.52
2294.00,86.48
2293.00,86.59
2292.00,86.68
2291.00,86.63
2290.00,86.64
2289.00,86.60
2288.00,86.58
2287.00,86.55
2286.00,86.54
2285.00,86.53
2284.00,86.54
2283.00,86.55
2282.00,86.56
2281.00,86.58
2280.00,86.61
2279.00,86.63
2278.00,86.65
2277.00,86.67
2276.00,86.68
2275.00,86.70
2274.00,86.73
2273.00,86.76
2272.00,86.79
2271.00,86.83
2270.00,86.86
2269.00,86.88
2268.00,86.88
2267.00,86.90
2266.00,86.94
2265.00,87.00
2264.00,87.05
2263.00,87.08
2262.00,87.10
2261.00,87.09
2260.00,87.08
2259.00,87.08
2258.00,87.10
2257.00,87.10
2256.00,87.10
2255.00,87.10
2254.00,87.11
2253.00,87.14
2252.00,87.17
2251.00,87.21
2250.00,87.23
2249.00,87.22
2248.00,87.20
2247.00,87.19
2246.00,87.19
2245.00,87.20
2244.00,87.21
2243.00,87.21
2242.00,87.21
2241.00,87.20
2240.00,87.21
2239.00,87.22
2238.00,87.24
2237.00,87.25
2236.00,87.24
2235.00,87.23
2234.00,87.22
2233.00,87.21
2232.00,87.21
2231.00,87.23
2230.00,87.25
2229.00,87.28
2228.00,87.30
2227.00,87.32
2226.00,87.34
2225.00,87.34
2224.00,87.32
2223.00,87.31
2222.00,87.30
2221.00,87.29
2220.00,87.29
2219.00,87.31
2218.00,87.33
2217.00,87.33
2216.00,87.33
2215.00,87.35
2214.00,87.38
2213.00,87.39
2212.00,87.38
2211.00,87.36
2210.00,87.35
2209.00,87.35
2208.00,87.37
2207.00,87.39
2206.00,87.39
2205.00,87.39
2204.00,87.38
2203.00,87.39
2202.00,87.40
2201.00,87.40
2200.00,87.39
2199.00,87.39
2198.00,87.39
2197.00,87.40
2196.00,87.42
2195.00,87.44
2194.00,87.45
2193.00,87.45
2192.00,87.45
2191.00,87.46
2190.00,87.47
2189.00,87.48
2188.00,87.49
2187.00,87.50
2186.00,87.52
2185.00,87.52
2184.00,87.52
2183.00,87.53
2182.00,87.56
2181.00,87.57
2180.00,87.58
2179.00,87.58
2178.00,87.58
2177.00,87.58
2176.00,87.59
2175.00,87.62
2174.00,87.64
2173.00,87.64
2172.00,87.63
2171.00,87.63
2170.00,87.62
2169.00,87.61
2168.00,87.61
2167.00,87.63
2166.00,87.68
2165.00,87.73
2164.00,87.77
2163.00,87.80
2162.00,87.82
2161.00,87.85
2160.00,87.92
2159.00,88.05
2158.00,88.16
2157.00,88.19
2156.00,88.17
2155.00,88.12
2154.00,88.07
2153.00,88.00
2152.00,87.94
2151.00,87.89
2150.00,87.86
2149.00,87.85
2148.00,87.86
2147.00,87.89
2146.00,87.91
2145.00,87.91
2144.00,87.90
2143.00,87.90
2142.00,87.90
2141.00,87.88
2140.00,87.85
2139.00,87.83
2138.00,87.80
2137.00,87.77
2136.00,87.74
2135.00,87.74
2134.00,87.74
2133.00,87.73
2132.00,87.70
2131.00,87.67
2130.00,87.64
2129.00,87.61
2128.00,87.58
2127.00,87.55
2126.00,87.52
2125.00,87.48
2124.00,87.45
2123.00,87.43
2122.00,87.42
2121.00,87.40
2120.00,87.38
2119.00,87.37
2118.00,87.36
2117.00,87.34
2116.00,87.32
2115.00,87.32
2114.00,87.33
2113.00,87.33
2112.00,87.33
2111.00,87.34
2110.00,87.35
2109.00,87.36
2108.00,87.36
2107.00,87.37
2106.00,87.37
2105.00,87.38
2104.00,87.40
2103.00,87.42
2102.00,87.44
2101.00,87.46
2100.00,87.46
2099.00,87.46
2098.00,87.46
2097.00,87.46
2096.00,87.47
2095.00,87.51
2094.00,87.53
2093.00,87.53
2092.00,87.51
2091.00,87.51
2090.00,87.51
2089.00,87.51
2088.00,87.50
2087.00,87.51
2086.00,87.51
2085.00,87.50
2084.00,87.50
2083.00,87.51
2082.00,87.52
2081.00,87.52
2080.00,87.53
2079.00,87.55
2078.00,87.58
2077.00,87.59
2076.00,87.59
2075.00,87.60
2074.00,87.61
2073.00,87.61
2072.00,87.61
2071.00,87.61
2070.00,87.63
2069.00,87.64
2068.00,87.65
2067.00,87.65
2066.00,87.66
2065.00,87.66
2064.00,87.67
2063.00,87.70
2062.00,87.72
2061.00,87.72
2060.00,87.72
2059.00,87.72
2058.00,87.72
2057.00,87.72
2056.00,87.71
2055.00,87.71
2054.00,87.72
2053.00,87.73
2052.00,87.72
2051.00,87.72
2050.00,87.75
2049.00,87.79
2048.00,87.83
2047.00,87.86
2046.00,87.88
2045.00,87.88
2044.00,87.88
2043.00,87.88
2042.00,87.89
2041.00,87.87
2040.00,87.84
2039.00,87.82
2038.00,87.83
2037.00,87.84
2036.00,87.86
2035.00,87.89
2034.00,87.91
2033.00,87.90
2032.00,87.90
2031.00,87.90
2030.00,87.89
2029.00,87.88
2028.00,87.88
2027.00,87.92
2026.00,87.97
2025.00,88.00
2024.00,88.02
2023.00,88.05
2022.00,88.07
2021.00,88.07
2020.00,88.06
2019.00,88.07
2018.00,88.10
2017.00,88.13
2016.00,88.15
2015.00,88.16
2014.00,88.13
2013.00,88.10
2012.00,88.09
2011.00,88.11
2010.00,88.14
2009.00,88.13
2008.00,88.12
2007.00,88.15
2006.00,88.20
2005.00,88.23
2004.00,88.24
2003.00,88.24
2002.00,88.23
2001.00,88.20
2000.00,88.17
1999.00,88.15
1998.00,88.14
1997.00,88.12
1996.00,88.10
1995.00,88.09
1994.00,88.10
1993.00,88.10
1992.00,88.10
1991.00,88.10
1990.00,88.12
1989.00,88.13
1988.00,88.14
1987.00,88.14
1986.00,88.14
1985.00,88.12
1984.00,88.12
1983.00,88.13
1982.00,88.15
1981.00,88.16
1980.00,88.18
1979.00,88.24
1978.00,88.32
1977.00,88.37
1976.00,88.39
1975.00,88.40
1974.00,88.41
1973.00,88.39
1972.00,88.37
1971.00,88.37
1970.00,88.38
1969.00,88.38
1968.00,88.36
1967.00,88.34
1966.00,88.32
1965.00,88.29
1964.00,88.26
1963.00,88.27
1962.00,88.27
1961.00,88.27
1960.00,88.27
1959.00,88.29
1958.00,88.30
1957.00,88.29
1956.00,88.25
1955.00,88.22
1954.00,88.20
1953.00,88.17
1952.00,88.15
1951.00,88.15
1950.00,88.16
1949.00,88.15
1948.00,88.14
1947.00,88.13
1946.00,88.11
1945.00,88.07
1944.00,88.02
1943.00,87.98
1942.00,87.96
1941.00,87.95
1940.00,87.92
1939.00,87.91
1938.00,87.89
1937.00,87.88
1936.00,87.88
1935.00,87.88
1934.00,87.88
1933.00,87.87
1932.00,87.86
1931.00,87.87
1930.00,87.89
1929.00,87.89
1928.00,87.89
1927.00,87.88
1926.00,87.86
1925.00,87.83
1924.00,87.81
1923.00,87.82
1922.00,87.84
1921.00,87.85
1920.00,87.86
1919.00,87.87
1918.00,87.90
1917.00,87.91
1916.00,87.92
1915.00,87.93
1914.00,87.93
1913.00,87.94
1912.00,87.95
1911.00,87.96
1910.00,87.97
1909.00,87.97
1908.00,87.96
1907.00,87.97
1906.00,88.00
1905.00,88.02
1904.00,88.05
1903.00,88.07
1902.00,88.07
1901.00,88.06
1900.00,88.03
1899.00,88.02
1898.00,88.01
1897.00,88.00
1896.00,88.00
1895.00,88.00
1894.00,88.00
1893.00,87.99
1892.00,87.97
1891.00,87.95
1890.00,87.95
1889.00,87.95
1888.00,87.95
1887.00,87.95
1886.00,87.95
1885.00,87.93
1884.00,87.92
1883.00,87.93
1882.00,87.95
1881.00,87.96
1880.00,87.96
1879.00,87.98
1878.00,88.00
1877.00,88.01
1876.00,88.02
1875.00,88.03
1874.00,88.04
1873.00,88.04
1872.00,88.03
1871.00,88.04
1870.00,88.05
1869.00,88.07
1868.00,88.10
1867.00,88.15
1866.00,88.19
1865.00,88.21
1864.00,88.23
1863.00,88.25
1862.00,88.28
1861.00,88.30
1860.00,88.30
1859.00,88.31
1858.00,88.31
1857.00,88.31
1856.00,88.31
1855.00,88.31
1854.00,88.31
1853.00,88.30
1852.00,88.29
1851.00,88.29
1850.00,88.28
1849.00,88.27
1848.00,88.25
1847.00,88.25
1846.00,88.26
1845.00,88.27
1844.00,88.29
1843.00,88.31
1842.00,88.32
1841.00,88.32
1840.00,88.31
1839.00,88.32
1838.00,88.33
1837.00,88.34
1836.00,88.34
1835.00,88.35
1834.00,88.35
1833.00,88.33
1832.00,88.31
1831.00,88.31
1830.00,88.32
1829.00,88.32
1828.00,88.31
1827.00,88.31
1826.00,88.32
1825.00,88.33
1824.00,88.34
1823.00,88.35
1822.00,88.36
1821.00,88.36
1820.00,88.35
1819.00,88.36
1818.00,88.36
1817.00,88.36
1816.00,88.35
1815.00,88.33
1814.00,88.31
1813.00,88.29
1812.00,88.26
1811.00,88.24
1810.00,88.23
1809.00,88.21
1808.00,88.20
1807.00,88.18
1806.00,88.17
1805.00,88.14
1804.00,88.11
1803.00,88.08
1802.00,88.07
1801.00,88.06
1800.00,88.05
1799.00,88.05
1798.00,88.04
1797.00,88.02
1796.00,87.99
1795.00,87.97
1794.00,87.95
1793.00,87.93
1792.00,87.91
1791.00,87.90
1790.00,87.90
1789.00,87.89
1788.00,87.89
1787.00,87.88
1786.00,87.88
1785.00,87.87
1784.00,87.87
1783.00,87.87
1782.00,87.87
1781.00,87.86
1780.00,87.86
1779.00,87.87
1778.00,87.88
1777.00,87.88
1776.00,87.88
1775.00,87.89
1774.00,87.91
1773.00,87.91
1772.00,87.93
1771.00,87.95
1770.00,87.97
1769.00,87.99
1768.00,88.01
1767.00,88.05
1766.00,88.08
1765.00,88.09
1764.00,88.09
1763.00,88.11
1762.00,88.13
1761.00,88.14
1760.00,88.15
1759.00,88.16
1758.00,88.18
1757.00,88.19
1756.00,88.20
1755.00,88.22
1754.00,88.22
1753.00,88.21
1752.00,88.19
1751.00,88.18
1750.00,88.18
1749.00,88.18
1748.00,88.18
1747.00,88.20
1746.00,88.22
1745.00,88.21
1744.00,88.19
1743.00,88.19
1742.00,88.19
1741.00,88.19
1740.00,88.18
1739.00,88.18
1738.00,88.18
1737.00,88.18
1736.00,88.17
1735.00,88.19
1734.00,88.22
1733.00,88.22
1732.00,88.21
1731.00,88.20
1730.00,88.20
1729.00,88.21
1728.00,88.22
1727.00,88.22
1726.00,88.21
1725.00,88.20
1724.00,88.19
1723.00,88.19
1722.00,88.18
1721.00,88.16
1720.00,88.14
1719.00,88.13
1718.00,88.15
1717.00,88.16
1716.00,88.15
1715.00,88.15
1714.00,88.15
1713.00,88.14
1712.00,88.13
1711.00,88.14
1710.00,88.14
1709.00,88.13
1708.00,88.10
1707.00,88.09
1706.00,88.08
1705.00,88.08
1704.00,88.07
1703.00,88.09
1702.00,88.11
1701.00,88.14
1700.00,88.16
1699.00,88.17
1698.00,88.18
1697.00,88.20
1696.00,88.25
1695.00,88.31
1694.00,88.33
1693.00,88.31
1692.00,88.29
1691.00,88.30
1690.00,88.31
1689.00,88.31
1688.00,88.32
1687.00,88.34
1686.00,88.36
1685.00,88.35
1684.00,88.35
1683.00,88.38
1682.00,88.39
1681.00,88.39
1680.00,88.40
1679.00,88.42
1678.00,88.42
1677.00,88.40
1676.00,88.35
1675.00,88.31
1674.00,88.26
1673.00,88.20
1672.00,88.12
1671.00,88.07
1670.00,88.00
1669.00,87.91
1668.00,87.81
1667.00,87.72
1666.00,87.60
1665.00,87.43
1664.00,87.21
1663.00,86.92
1662.00,86.59
1661.00,86.22
1660.00,85.83
1659.00,85.41
1658.00,84.96
1657.00,84.51
1656.00,84.08
1655.00,83.71
1654.00,83.35
1653.00,83.01
1652.00,82.83
1651.00,82.79
1650.00,82.82
1649.00,82.95
1648.00,83.23
1647.00,83.73
1646.00,84.32
1645.00,84.82
1644.00,85.20
1643.00,85.56
1642.00,85.91
1641.00,86.25
1640.00,86.53
1639.00,86.77
1638.00,86.98
1637.00,87.17
1636.00,87.36
1635.00,87.54
1634.00,87.65
1633.00,87.68
1632.00,87.67
1631.00,87.66
1630.00,87.65
1629.00,87.59
1628.00,87.50
1627.00,87.41
1626.00,87.29
1625.00,87.09
1624.00,86.78
1623.00,86.40
1622.00,85.95
1621.00,85.45
1620.00,84.91
1619.00,84.24
1618.00,83.24
1617.00,81.67
1616.00,79.68
1615.00,77.71
1614.00,75.91
1613.00,74.11
1612.00,72.28
1611.00,70.61
1610.00,69.36
1609.00,68.60
1608.00,68.30
1607.00,68.44
1606.00,68.94
1605.00,69.64
1604.00,70.41
1603.00,71.23
1602.00,72.07
1601.00,72.84
1600.00,73.48
1599.00,74.01
1598.00,74.46
1597.00,74.76
1596.00,74.87
1595.00,74.82
1594.00,74.60
1593.00,74.23
1592.00,73.71
1591.00,73.13
1590.00,72.60
1589.00,72.21
1588.00,72.03
1587.00,72.15
1586.00,72.64
1585.00,73.45
1584.00,74.49
1583.00,75.70
1582.00,77.01
1581.00,78.27
1580.00,79.39
1579.00,80.37
1578.00,81.29
1577.00,82.26
1576.00,83.25
1575.00,84.06
1574.00,84.56
1573.00,84.88
1572.00,85.14
1571.00,85.38
1570.00,85.59
1569.00,85.69
1568.00,85.68
1567.00,85.60
1566.00,85.45
1565.00,85.23
1564.00,84.98
1563.00,84.76
1562.00,84.56
1561.00,84.33
1560.00,84.02
1559.00,83.73
1558.00,83.56
1557.00,83.45
1556.00,83.37
1555.00,83.38
1554.00,83.46
1553.00,83.55
1552.00,83.69
1551.00,83.94
1550.00,84.28
1549.00,84.61
1548.00,84.88
1547.00,85.11
1546.00,85.28
1545.00,85.37
1544.00,85.40
1543.00,85.43
1542.00,85.42
1541.00,85.24
1540.00,84.91
1539.00,84.52
1538.00,84.07
1537.00,83.53
1536.00,82.91
1535.00,82.13
1534.00,80.99
1533.00,79.51
1532.00,78.05
1531.00,76.72
1530.00,75.32
1529.00,73.69
1528.00,71.86
1527.00,69.91
1526.00,67.95
1525.00,66.11
1524.00,64.51
1523.00,63.05
1522.00,61.49
1521.00,59.95
1520.00,58.86
1519.00,58.24
1518.00,57.91
1517.00,57.86
1516.00,58.15
1515.00,58.75
1514.00,59.59
1513.00,60.68
1512.00,62.02
1511.00,63.45
1510.00,64.82
1509.00,66.18
1508.00,67.80
1507.00,69.90
1506.00,71.95
1505.00,73.31
1504.00,74.09
1503.00,74.63
1502.00,75.14
1501.00,75.62
1500.00,75.99
1499.00,76.23
1498.00,76.34
1497.00,76.31
1496.00,76.08
1495.00,75.64
1494.00,75.03
1493.00,74.20
1492.00,72.95
1491.00,71.08
1490.00,68.62
1489.00,65.96
1488.00,63.47
1487.00,61.35
1486.00,59.81
1485.00,59.11
1484.00,59.33
1483.00,60.43
1482.00,62.33
1481.00,64.72
1480.00,67.09
1479.00,69.07
1478.00,70.61
1477.00,71.74
1476.00,72.44
1475.00,72.73
1474.00,72.64
1473.00,72.21
1472.00,71.54
1471.00,70.85
1470.00,70.22
1469.00,69.58
1468.00,68.92
1467.00,68.27
1466.00,67.65
1465.00,67.06
1464.00,66.52
1463.00,66.07
1462.00,65.65
1461.00,65.21
1460.00,64.72
1459.00,64.19
1458.00,63.54
1457.00,62.74
1456.00,61.95
1455.00,61.30
1454.00,60.71
1453.00,60.05
1452.00,59.29
1451.00,58.52
1450.00,57.78
1449.00,57.08
1448.00,56.52
1447.00,56.21
1446.00,56.17
1445.00,56.38
1444.00,56.86
1443.00,57.63
1442.00,58.65
1441.00,59.80
1440.00,61.00
1439.00,62.24
1438.00,63.64
1437.00,65.32
1436.00,67.06
1435.00,68.48
1434.00,69.57
1433.00,70.54
1432.00,71.52
1431.00,72.49
1430.00,73.38
1429.00,74.13
1428.00,74.71
1427.00,75.08
1426.00,75.31
1425.00,75.50
1424.00,75.67
1423.00,75.83
1422.00,76.00
1421.00,76.26
1420.00,76.66
1419.00,77.18
1418.00,77.69
1417.00,78.08
1416.00,78.37
1415.00,78.55
1414.00,78.67
1413.00,78.75
1412.00,78.80
1411.00,78.82
1410.00,78.85
1409.00,78.92
1408.00,79.05
1407.00,79.23
1406.00,79.48
1405.00,79.82
1404.00,80.19
1403.00,80.51
1402.00,80.76
1401.00,80.97
1400.00,81.16
1399.00,81.29
1398.00,81.34
1397.00,81.30
1396.00,81.11
1395.00,80.72
1394.00,80.17
1393.00,79.53
1392.00,78.88
1391.00,78.22
1390.00,77.62
1389.00,77.10
1388.00,76.63
1387.00,76.17
1386.00,75.77
1385.00,75.46
1384.00,75.29
1383.00,75.32
1382.00,75.61
1381.00,76.16
1380.00,76.86
1379.00,77.60
1378.00,78.24
1377.00,78.74
1376.00,79.07
1375.00,79.25
1374.00,79.32
1373.00,79.28
1372.00,79.14
1371.00,78.86
1370.00,78.44
1369.00,77.85
1368.00,77.05
1367.00,76.05
1366.00,74.90
1365.00,73.65
1364.00,72.38
1363.00,71.26
1362.00,70.58
1361.00,70.44
1360.00,70.76
1359.00,71.34
1358.00,72.03
1357.00,72.69
1356.00,73.25
1355.00,73.64
1354.00,73.88
1353.00,73.95
1352.00,73.82
1351.00,73.46
1350.00,72.84
1349.00,71.94
1348.00,70.72
1347.00,69.18
1346.00,67.32
1345.00,65.18
1344.00,62.81
1343.00,60.31
1342.00,57.77
1341.00,55.24
1340.00,52.79
1339.00,50.60
1338.00,48.83
1337.00,47.51
1336.00,46.59
1335.00,46.03
1334.00,45.81
1333.00,45.88
1332.00,46.16
1331.00,46.57
1330.00,47.05
1329.00,47.54
1328.00,47.98
1327.00,48.40
1326.00,48.83
1325.00,49.32
1324.00,49.90
1323.00,50.63
1322.00,51.54
1321.00,52.63
1320.00,53.89
1319.00,55.29
1318.00,56.74
1317.00,58.16
1316.00,59.46
1315.00,60.59
1314.00,61.51
1313.00,62.17
1312.00,62.52
1311.00,62.56
1310.00,62.30
1309.00,61.78
1308.00,61.05
1307.00,60.16
1306.00,59.19
1305.00,58.20
1304.00,57.25
1303.00,56.40
1302.00,55.72
1301.00,55.21
1300.00,54.88
1299.00,54.72
1298.00,54.72
1297.00,54.87
1296.00,55.14
1295.00,55.55
1294.00,56.10
1293.00,56.76
1292.00,57.47
1291.00,58.18
1290.00,58.83
1289.00,59.35
1288.00,59.72
1287.00,59.91
1286.00,59.94
1285.00,59.81
1284.00,59.53
1283.00,59.13
1282.00,58.62
1281.00,58.05
1280.00,57.40
1279.00,56.71
1278.00,55.97
1277.00,55.19
1276.00,54.37
1275.00,53.55
1274.00,52.76
1273.00,52.04
1272.00,51.42
1271.00,50.93
1270.00,50.61
1269.00,50.47
1268.00,50.50
1267.00,50.67
1266.00,50.96
1265.00,51.34
1264.00,51.79
1263.00,52.31
1262.00,52.95
1261.00,53.70
1260.00,54.58
1259.00,55.57
1258.00,56.64
1257.00,57.76
1256.00,58.86
1255.00,59.92
1254.00,60.92
1253.00,61.83
1252.00,62.65
1251.00,63.36
1250.00,63.99
1249.00,64.52
1248.00,64.96
1247.00,65.30
1246.00,65.56
1245.00,65.73
1244.00,65.82
1243.00,65.84
1242.00,65.79
1241.00,65.70
1240.00,65.57
1239.00,65.44
1238.00,65.32
1237.00,65.23
1236.00,65.16
1235.00,65.12
1234.00,65.12
1233.00,65.18
1232.00,65.29
1231.00,65.46
1230.00,65.71
1229.00,66.05
1228.00,66.45
1227.00,66.92
1226.00,67.45
1225.00,68.02
1224.00,68.60
1223.00,69.16
1222.00,69.68
1221.00,70.14
1220.00,70.53
1219.00,70.86
1218.00,71.15
1217.00,71.41
1216.00,71.63
1215.00,71.82
1214.00,71.98
1213.00,72.12
1212.00,72.24
1211.00,72.33
1210.00,72.40
1209.00,72.45
1208.00,72.49
1207.00,72.51
1206.00,72.54
1205.00,72.61
1204.00,72.71
1203.00,72.86
1202.00,73.05
1201.00,73.25
1200.00,73.43
1199.00,73.56
1198.00,73.59
1197.00,73.51
1196.00,73.28
1195.00,72.88
1194.00,72.28
1193.00,71.45
1192.00,70.40
1191.00,69.14
1190.00,67.73
1189.00,66.24
1188.00,64.76
1187.00,63.42
1186.00,62.32
1185.00,61.57
1184.00,61.20
1183.00,61.28
1182.00,61.78
1181.00,62.66
1180.00,63.83
1179.00,65.17
1178.00,66.56
1177.00,67.89
1176.00,69.09
1175.00,70.15
1174.00,71.08
1173.00,71.95
1172.00,72.79
1171.00,73.64
1170.00,74.52
1169.00,75.40
1168.00,76.21
1167.00,76.89
1166.00,77.39
1165.00,77.68
1164.00,77.75
1163.00,77.64
1162.00,77.39
1161.00,77.08
1160.00,76.80
1159.00,76.60
1158.00,76.59
1157.00,76.85
1156.00,77.45
1155.00,78.39
1154.00,79.60
1153.00,80.92
1152.00,82.17
1151.00,83.18
1150.00,83.89
1149.00,84.30
1148.00,84.43
1147.00,84.30
1146.00,83.93
1145.00,83.37
1144.00,82.72
1143.00,82.09
1142.00,81.65
1141.00,81.51
1140.00,81.69
1139.00,82.10
1138.00,82.63
1137.00,83.16
1136.00,83.60
1135.00,83.90
1134.00,84.06
1133.00,84.09
1132.00,84.01
1131.00,83.83
1130.00,83.56
1129.00,83.23
1128.00,82.88
1127.00,82.50
1126.00,82.10
1125.00,81.69
1124.00,81.24
1123.00,80.72
1122.00,80.13
1121.00,79.43
1120.00,78.63
1119.00,77.82
1118.00,77.13
1117.00,76.71
1116.00,76.63
1115.00,76.87
1114.00,77.24
1113.00,77.50
1112.00,77.44
1111.00,76.95
1110.00,76.11
1109.00,75.05
1108.00,73.93
1107.00,72.88
1106.00,71.95
1105.00,71.12
1104.00,70.34
1103.00,69.58
1102.00,68.81
1101.00,68.04
1100.00,67.24
1099.00,66.39
1098.00,65.46
1097.00,64.45
1096.00,63.34
1095.00,62.18
1094.00,61.00
1093.00,59.81
1092.00,58.63
1091.00,57.49
1090.00,56.42
1089.00,55.43
1088.00,54.52
1087.00,53.74
1086.00,53.18
1085.00,52.88
1084.00,52.90
1083.00,53.30
1082.00,54.06
1081.00,55.14
1080.00,56.45
1079.00,57.91
1078.00,59.45
1077.00,60.97
1076.00,62.45
1075.00,63.82
1074.00,65.07
1073.00,66.11
1072.00,66.88
1071.00,67.38
1070.00,67.63
1069.00,67.75
1068.00,67.90
1067.00,68.24
1066.00,68.84
1065.00,69.63
1064.00,70.49
1063.00,71.34
1062.00,72.11
1061.00,72.82
1060.00,73.51
1059.00,74.19
1058.00,74.89
1057.00,75.61
1056.00,76.34
1055.00,77.06
1054.00,77.76
1053.00,78.41
1052.00,78.97
1051.00,79.41
1050.00,79.74
1049.00,79.99
1048.00,80.19
1047.00,80.42
1046.00,80.72
1045.00,81.10
1044.00,81.55
1043.00,82.04
1042.00,82.54
1041.00,83.00
1040.00,83.42
1039.00,83.75
1038.00,83.99
1037.00,84.15
1036.00,84.20
1035.00,84.16
1034.00,83.99
1033.00,83.66
1032.00,83.11
1031.00,82.23
1030.00,80.93
1029.00,79.11
1028.00,76.71
1027.00,73.76
1026.00,70.46
1025.00,67.19
1024.00,64.44
1023.00,62.63
1022.00,61.91
1021.00,62.06
1020.00,62.67
1019.00,63.34
1018.00,63.88
1017.00,64.30
1016.00,64.72
1015.00,65.34
1014.00,66.24
1013.00,67.47
1012.00,68.93
1011.00,70.53
1010.00,72.12
1009.00,73.58
1008.00,74.82
1007.00,75.84
1006.00,76.64
1005.00,77.25
1004.00,77.72
1003.00,78.05
1002.00,78.27
1001.00,78.41
1000.00,78.48
999.00,78.51
998.00,78.55
997.00,78.60
996.00,78.66
995.00,78.72
994.00,78.76
993.00,78.77
992.00,78.75
991.00,78.74
990.00,78.75
989.00,78.80
988.00,78.88
987.00,78.98
986.00,79.11
985.00,79.28
984.00,79.49
983.00,79.72
982.00,79.99
981.00,80.26
980.00,80.53
979.00,80.79
978.00,81.04
977.00,81.26
976.00,81.47
975.00,81.66
974.00,81.84
973.00,82.01
972.00,82.17
971.00,82.33
970.00,82.50
969.00,82.69
968.00,82.91
967.00,83.16
966.00,83.45
965.00,83.77
964.00,84.12
963.00,84.48
962.00,84.83
961.00,85.17
960.00,85.46
959.00,85.68
958.00,85.78
957.00,85.74
956.00,85.52
955.00,85.08
954.00,84.39
953.00,83.41
952.00,82.12
951.00,80.51
950.00,78.60
949.00,76.45
948.00,74.20
947.00,72.04
946.00,70.24
945.00,69.01
944.00,68.53
943.00,68.83
942.00,69.75
941.00,70.98
940.00,72.18
939.00,73.00
938.00,73.24
937.00,72.80
936.00,71.69
935.00,69.97
934.00,67.79
933.00,65.32
932.00,62.74
931.00,60.23
930.00,57.97
929.00,56.09
928.00,54.65
927.00,53.64
926.00,52.99
925.00,52.56
924.00,52.21
923.00,51.85
922.00,51.45
921.00,51.00
920.00,50.52
919.00,50.06
918.00,49.62
917.00,49.21
916.00,48.84
915.00,48.52
914.00,48.27
913.00,48.05
912.00,47.86
911.00,47.71
910.00,47.60
909.00,47.52
908.00,47.47
907.00,47.49
906.00,47.61
905.00,47.86
904.00,48.28
903.00,48.96
902.00,49.95
901.00,51.25
900.00,52.82
899.00,54.59
898.00,56.44
897.00,58.28
896.00,60.03
895.00,61.66
894.00,63.17
893.00,64.56
892.00,65.85
891.00,67.08
890.00,68.27
889.00,69.45
888.00,70.65
887.00,71.87
886.00,73.11
885.00,74.33
884.00,75.51
883.00,76.61
882.00,77.61
881.00,78.49
880.00,79.25
879.00,79.91
878.00,80.48
877.00,80.99
876.00,81.42
875.00,81.80
874.00,82.13
873.00,82.42
872.00,82.70
871.00,82.96
870.00,83.23
869.00,83.53
868.00,83.83
867.00,84.14
866.00,84.42
865.00,84.66
864.00,84.87
863.00,85.02
862.00,85.11
861.00,85.13
860.00,85.04
859.00,84.85
858.00,84.55
857.00,84.14
856.00,83.63
855.00,83.02
854.00,82.36
853.00,81.71
852.00,81.09
851.00,80.59
850.00,80.23
849.00,80.08
848.00,80.13
847.00,80.39
846.00,80.85
845.00,81.46
844.00,82.21
843.00,83.03
842.00,83.90
841.00,84.77
840.00,85.60
839.00,86.35
838.00,87.00
837.00,87.55
836.00,88.00
835.00,88.35
834.00,88.61
833.00,88.78
832.00,88.86
831.00,88.80
830.00,88.59
829.00,88.16
828.00,87.45
827.00,86.43
826.00,85.11
825.00,83.61
824.00,82.10
823.00,80.78
822.00,79.79
821.00,79.21
820.00,78.99
819.00,79.11
818.00,79.56
817.00,80.33
816.00,81.41
815.00,82.72
814.00,84.12
813.00,85.41
812.00,86.37
811.00,86.88
810.00,86.90
809.00,86.44
808.00,85.54
807.00,84.26
806.00,82.66
805.00,80.83
804.00,78.83
803.00,76.74
802.00,74.62
801.00,72.52
800.00,70.56
799.00,68.85
798.00,67.49
797.00,66.56
796.00,66.08
795.00,66.05
794.00,66.44
793.00,67.21
792.00,68.29
791.00,69.60
790.00,71.02
789.00,72.41
788.00,73.70
787.00,74.78
786.00,75.55
785.00,75.92
784.00,75.85
783.00,75.39
782.00,74.62
781.00,73.67
780.00,72.71
779.00,71.92
778.00,71.46
777.00,71.41
776.00,71.72
775.00,72.26
774.00,72.80
773.00,73.13
772.00,73.22
771.00,73.21
770.00,73.28
769.00,73.57
768.00,74.05
767.00,74.62
766.00,75.11
765.00,75.32
764.00,75.10
763.00,74.37
762.00,73.14
761.00,71.48
760.00,69.63
759.00,67.91
758.00,66.60
757.00,65.80
756.00,65.34
755.00,64.84
754.00,63.86
753.00,62.07
752.00,59.41
751.00,56.11
750.00,52.52
749.00,49.02
748.00,45.95
747.00,43.59
746.00,42.04
745.00,41.24
744.00,41.03
743.00,41.31
742.00,42.06
741.00,43.26
740.00,44.91
739.00,46.99
738.00,49.46
737.00,52.19
736.00,55.03
735.00,57.85
734.00,60.50
733.00,62.85
732.00,64.82
731.00,66.40
730.00,67.63
729.00,68.51
728.00,69.03
727.00,69.22
726.00,69.14
725.00,68.86
724.00,68.47
723.00,68.08
722.00,67.85
721.00,67.89
720.00,68.29
719.00,69.09
718.00,70.23
717.00,71.64
716.00,73.20
715.00,74.83
714.00,76.44
713.00,77.91
712.00,79.18
711.00,80.20
710.00,81.02
709.00,81.67
708.00,82.18
707.00,82.61
706.00,83.02
705.00,83.42
704.00,83.81
703.00,84.15
702.00,84.48
701.00,84.80
700.00,85.11
699.00,85.41
698.00,85.71
697.00,86.01
696.00,86.30
695.00,86.57
694.00,86.84
693.00,87.12
692.00,87.39
691.00,87.63
690.00,87.81
689.00,87.95
688.00,88.08
687.00,88.21
686.00,88.33
685.00,88.44
684.00,88.50
683.00,88.52
682.00,88.51
681.00,88.50
680.00,88.45
679.00,88.37
678.00,88.23
677.00,87.93
676.00,87.47
675.00,86.78
674.00,85.86
673.00,84.87
672.00,84.00
671.00,83.16
670.00,82.02
669.00,80.41
668.00,78.56
667.00,77.27
666.00,76.94
665.00,77.03
664.00,77.17
663.00,77.55
662.00,78.35
661.00,79.37
660.00,80.38
659.00,81.28
658.00,82.09
657.00,82.73
656.00,83.24
655.00,83.68
654.00,84.07
653.00,84.47
652.00,84.88
651.00,85.24
650.00,85.54
649.00,85.77
648.00,85.98
647.00,86.13
646.00,86.23
645.00,86.29
644.00,86.33
643.00,86.35
642.00,86.34
641.00,86.35
640.00,86.37
639.00,86.38
638.00,86.39
637.00,86.46
636.00,86.57
635.00,86.62
634.00,86.58
633.00,86.54
632.00,86.60
631.00,86.77
630.00,87.04
629.00,87.37
628.00,87.68
627.00,87.87
626.00,87.90
625.00,87.85
624.00,87.75
623.00,87.56
622.00,87.25
621.00,86.92
620.00,86.59
619.00,86.22
618.00,85.74
617.00,85.17
616.00,84.57
615.00,84.01
614.00,83.63
613.00,83.56
612.00,83.81
611.00,84.29
610.00,84.91
609.00,85.68
608.00,86.54
607.00,87.27
606.00,87.70
605.00,87.88
604.00,88.01
603.00,88.17
602.00,88.31
601.00,88.40
600.00,88.46
