Created by Instrument,
cm-1,%T
4000.00,99.87
3999.00,99.88
3998.00,99.88
3997.00,99.87
3996.00,99.87
3995.00,99.87
3994.00,99.88
3993.00,99.89
3992.00,99.89
3991.00,99.89
3990.00,99.89
3989.00,99.89
3988.00,99.88
3987.00,99.87
3986.00,99.86
3985.00,99.87
3984.00,99.88
3983.00,99.89
3982.00,99.90
3981.00,99.89
3980.00,99.88
3979.00,99.88
3978.00,99.88
3977.00,99.88
3976.00,99.89
3975.00,99.90
3974.00,99.91
3973.00,99.91
3972.00,99.90
3971.00,99.89
3970.00,99.88
3969.00,99.87
3968.00,99.87
3967.00,99.87
3966.00,99.87
3965.00,99.87
3964.00,99.86
3963.00,99.86
3962.00,99.85
3961.00,99.86
3960.00,99.87
3959.00,99.89
3958.00,99.90
3957.00,99.90
3956.00,99.90
3955.00,99.90
3954.00,99.89
3953.00,99.88
3952.00,99.87
3951.00,99.87
3950.00,99.87
3949.00,99.87
3948.00,99.86
3947.00,99.86
3946.00,99.87
3945.00,99.87
3944.00,99.88
3943.00,99.89
3942.00,99.89
3941.00,99.88
3940.00,99.87
3939.00,99.87
3938.00,99.88
3937.00,99.89
3936.00,99.90
3935.00,99.91
3934.00,99.91
3933.00,99.91
3932.00,99.91
3931.00,99.90
3930.00,99.90
3929.00,99.89
3928.00,99.89
3927.00,99.89
3926.00,99.89
3925.00,99.89
3924.00,99.89
3923.00,99.89
3922.00,99.88
3921.00,99.88
3920.00,99.87
3919.00,99.87
3918.00,99.87
3917.00,99.87
3916.00,99.87
3915.00,99.87
3914.00,99.86
3913.00,99.86
3912.00,99.87
3911.00,99.88
3910.00,99.88
3909.00,99.88
3908.00,99.88
3907.00,99.87
3906.00,99.87
3905.00,99.86
3904.00,99.86
3903.00,99.87
3902.00,99.88
3901.00,99.90
3900.00,99.90
3899.00,99.89
3898.00,99.88
3897.00,99.88
3896.00,99.89
3895.00,99.92
3894.00,99.94
3893.00,99.95
3892.00,99.94
3891.00,99.94
3890.00,99.93
3889.00,99.94
3888.00,99.94
3887.00,99.93
3886.00,99.92
3885.00,99.91
3884.00,99.91
3883.00,99.93
3882.00,99.93
3881.00,99.93
3880.00,99.92
3879.00,99.91
3878.00,99.91
3877.00,99.92
3876.00,99.92
3875.00,99.91
3874.00,99.90
3873.00,99.90
3872.00,99.91
3871.00,99.93
3870.00,99.94
3869.00,99.94
3868.00,99.93
3867.00,99.93
3866.00,99.93
3865.00,99.93
3864.00,99.94
3863.00,99.94
3862.00,99.95
3861.00,99.94
3860.00,99.94
3859.00,99.92
3858.00,99.91
3857.00,99.90
3856.00,99.89
3855.00,99.86
3854.00,99.83
3853.00,99.83
3852.00,99.86
3851.00,99.88
3850.00,99.90
3849.00,99.91
3848.00,99.91
3847.00,99.91
3846.00,99.92
3845.00,99.93
3844.00,99.93
3843.00,99.93
3842.00,99.93
3841.00,99.92
3840.00,99.92
3839.00,99.92
3838.00,99.93
3837.00,99.94
3836.00,99.95
3835.00,99.95
3834.00,99.94
3833.00,99.93
3832.00,99.92
3831.00,99.92
3830.00,99.93
3829.00,99.94
3828.00,99.95
3827.00,99.95
3826.00,99.94
3825.00,99.94
3824.00,99.96
3823.00,99.96
3822.00,99.95
3821.00,99.94
3820.00,99.94
3819.00,99.95
3818.00,99.95
3817.00,99.95
3816.00,99.94
3815.00,99.93
3814.00,99.92
3813.00,99.91
3812.00,99.92
3811.00,99.95
3810.00,99.97
3809.00,99.98
3808.00,99.99
3807.00,99.98
3806.00,99.98
3805.00,99.98
3804.00,99.97
3803.00,99.97
3802.00,99.98
3801.00,99.99
3800.00,100.00
3799.00,100.00
3798.00,100.00
3797.00,99.98
3796.00,99.98
3795.00,99.97
3794.00,99.97
3793.00,99.96
3792.00,99.95
3791.00,99.94
3790.00,99.93
3789.00,99.93
3788.00,99.93
3787.00,99.93
3786.00,99.93
3785.00,99.93
3784.00,99.93
3783.00,99.94
3782.00,99.94
3781.00,99.95
3780.00,99.95
3779.00,99.95
3778.00,99.94
3777.00,99.92
3776.00,99.90
3775.00,99.90
3774.00,99.91
3773.00,99.93
3772.00,99.94
3771.00,99.95
3770.00,99.95
3769.00,99.95
3768.00,99.96
3767.00,99.96
3766.00,99.94
3765.00,99.92
3764.00,99.92
3763.00,99.92
3762.00,99.93
3761.00,99.93
3760.00,99.93
3759.00,99.94
3758.00,99.96
3757.00,99.97
3756.00,99.98
3755.00,99.99
3754.00,99.99
3753.00,100.00
3752.00,99.99
3751.00,99.97
3750.00,99.97
3749.00,99.97
3748.00,99.97
3747.00,99.97
3746.00,99.97
3745.00,99.96
3744.00,99.95
3743.00,99.94
3742.00,99.94
3741.00,99.93
3740.00,99.94
3739.00,99.94
3738.00,99.94
3737.00,99.95
3736.00,99.97
3735.00,100.00
3734.00,100.02
3733.00,100.02
3732.00,100.00
3731.00,99.99
3730.00,99.98
3729.00,99.97
3728.00,99.95
3727.00,99.94
3726.00,99.93
3725.00,99.95
3724.00,99.97
3723.00,99.98
3722.00,99.96
3721.00,99.94
3720.00,99.93
3719.00,99.92
3718.00,99.91
3717.00,99.90
3716.00,99.90
3715.00,99.91
3714.00,99.92
3713.00,99.93
3712.00,99.93
3711.00,99.94
3710.00,99.96
3709.00,99.97
3708.00,99.97
3707.00,99.96
3706.00,99.96
3705.00,99.96
3704.00,99.95
3703.00,99.94
3702.00,99.92
3701.00,99.90
3700.00,99.90
3699.00,99.90
3698.00,99.91
3697.00,99.91
3696.00,99.91
3695.00,99.92
3694.00,99.93
3693.00,99.95
3692.00,99.97
3691.00,99.97
3690.00,99.97
3689.00,99.96
3688.00,99.95
3687.00,99.93
3686.00,99.92
3685.00,99.90
3684.00,99.90
3683.00,99.91
3682.00,99.92
3681.00,99.93
3680.00,99.94
3679.00,99.96
3678.00,99.97
3677.00,99.97
3676.00,99.97
3675.00,99.97
3674.00,99.97
3673.00,99.96
3672.00,99.95
3671.00,99.93
3670.00,99.91
3669.00,99.90
3668.00,99.91
3667.00,99.91
3666.00,99.90
3665.00,99.90
3664.00,99.89
3663.00,99.89
3662.00,99.89
3661.00,99.90
3660.00,99.91
3659.00,99.92
3658.00,99.93
3657.00,99.94
3656.00,99.95
3655.00,99.96
3654.00,99.96
3653.00,99.94
3652.00,99.92
3651.00,99.89
3650.00,99.89
3649.00,99.91
3648.00,99.91
3647.00,99.89
3646.00,99.86
3645.00,99.83
3644.00,99.82
3643.00,99.81
3642.00,99.82
3641.00,99.83
3640.00,99.83
3639.00,99.83
3638.00,99.83
3637.00,99.84
3636.00,99.85
3635.00,99.86
3634.00,99.87
3633.00,99.86
3632.00,99.86
3631.00,99.87
3630.00,99.87
3629.00,99.87
3628.00,99.86
3627.00,99.85
3626.00,99.84
3625.00,99.83
3624.00,99.82
3623.00,99.82
3622.00,99.84
3621.00,99.86
3620.00,99.88
3619.00,99.88
3618.00,99.88
3617.00,99.88
3616.00,99.88
3615.00,99.88
3614.00,99.90
3613.00,99.92
3612.00,99.94
3611.00,99.94
3610.00,99.93
3609.00,99.92
3608.00,99.90
3607.00,99.89
3606.00,99.88
3605.00,99.89
3604.00,99.91
3603.00,99.92
3602.00,99.92
3601.00,99.91
3600.00,99.90
3599.00,99.90
3598.00,99.91
3597.00,99.92
3596.00,99.92
3595.00,99.92
3594.00,99.93
3593.00,99.93
3592.00,99.92
3591.00,99.93
3590.00,99.93
3589.00,99.92
3588.00,99.90
3587.00,99.90
3586.00,99.90
3585.00,99.91
3584.00,99.91
3583.00,99.91
3582.00,99.92
3581.00,99.93
3580.00,99.93
3579.00,99.91
3578.00,99.88
3577.00,99.86
3576.00,99.86
3575.00,99.87
3574.00,99.88
3573.00,99.88
3572.00,99.88
3571.00,99.88
3570.00,99.88
3569.00,99.87
3568.00,99.88
3567.00,99.88
3566.00,99.89
3565.00,99.87
3564.00,99.85
3563.00,99.84
3562.00,99.84
3561.00,99.84
3560.00,99.84
3559.00,99.84
3558.00,99.86
3557.00,99.87
3556.00,99.88
3555.00,99.89
3554.00,99.89
3553.00,99.89
3552.00,99.88
3551.00,99.86
3550.00,99.85
3549.00,99.84
3548.00,99.83
3547.00,99.83
3546.00,99.84
3545.00,99.83
3544.00,99.80
3543.00,99.78
3542.00,99.78
3541.00,99.78
3540.00,99.79
3539.00,99.79
3538.00,99.78
3537.00,99.78
3536.00,99.78
3535.00,99.79
3534.00,99.80
3533.00,99.81
3532.00,99.80
3531.00,99.79
3530.00,99.78
3529.00,99.77
3528.00,99.76
3527.00,99.75
3526.00,99.76
3525.00,99.77
3524.00,99.79
3523.00,99.78
3522.00,99.77
3521.00,99.75
3520.00,99.73
3519.00,99.73
3518.00,99.72
3517.00,99.72
3516.00,99.71
3515.00,99.70
3514.00,99.71
3513.00,99.72
3512.00,99.73
3511.00,99.73
3510.00,99.72
3509.00,99.71
3508.00,99.70
3507.00,99.69
3506.00,99.68
3505.00,99.67
3504.00,99.67
3503.00,99.66
3502.00,99.66
3501.00,99.66
3500.00,99.66
3499.00,99.65
3498.00,99.65
3497.00,99.66
3496.00,99.66
3495.00,99.67
3494.00,99.67
3493.00,99.67
3492.00,99.67
3491.00,99.66
3490.00,99.65
3489.00,99.65
3488.00,99.64
3487.00,99.63
3486.00,99.62
3485.00,99.61
3484.00,99.60
3483.00,99.60
3482.00,99.59
3481.00,99.58
3480.00,99.58
3479.00,99.58
3478.00,99.60
3477.00,99.62
3476.00,99.62
3475.00,99.61
3474.00,99.60
3473.00,99.60
3472.00,99.60
3471.00,99.60
3470.00,99.60
3469.00,99.60
3468.00,99.58
3467.00,99.56
3466.00,99.54
3465.00,99.54
3464.00,99.54
3463.00,99.54
3462.00,99.53
3461.00,99.52
3460.00,99.51
3459.00,99.50
3458.00,99.50
3457.00,99.51
3456.00,99.52
3455.00,99.53
3454.00,99.53
3453.00,99.52
3452.00,99.51
3451.00,99.50
3450.00,99.49
3449.00,99.49
3448.00,99.48
3447.00,99.45
3446.00,99.43
3445.00,99.42
3444.00,99.43
3443.00,99.44
3442.00,99.45
3441.00,99.43
3440.00,99.41
3439.00,99.39
3438.00,99.37
3437.00,99.36
3436.00,99.37
3435.00,99.39
3434.00,99.41
3433.00,99.42
3432.00,99.42
3431.00,99.42
3430.00,99.41
3429.00,99.40
3428.00,99.40
3427.00,99.39
3426.00,99.39
3425.00,99.37
3424.00,99.35
3423.00,99.33
3422.00,99.32
3421.00,99.33
3420.00,99.34
3419.00,99.35
3418.00,99.35
3417.00,99.34
3416.00,99.33
3415.00,99.33
3414.00,99.33
3413.00,99.32
3412.00,99.32
3411.00,99.32
3410.00,99.32
3409.00,99.32
3408.00,99.31
3407.00,99.30
3406.00,99.29
3405.00,99.28
3404.00,99.28
3403.00,99.28
3402.00,99.28
3401.00,99.27
3400.00,99.27
3399.00,99.26
3398.00,99.25
3397.00,99.25
3396.00,99.24
3395.00,99.23
3394.00,99.21
3393.00,99.21
3392.00,99.20
3391.00,99.19
3390.00,99.19
3389.00,99.19
3388.00,99.20
3387.00,99.21
3386.00,99.21
3385.00,99.20
3384.00,99.17
3383.00,99.15
3382.00,99.14
3381.00,99.13
3380.00,99.13
3379.00,99.12
3378.00,99.13
3377.00,99.13
3376.00,99.14
3375.00,99.13
3374.00,99.11
3373.00,99.10
3372.00,99.10
3371.00,99.10
3370.00,99.11
3369.00,99.11
3368.00,99.10
3367.00,99.08
3366.00,99.05
3365.00,99.03
3364.00,99.01
3363.00,99.00
3362.00,98.99
3361.00,98.98
3360.00,98.99
3359.00,99.00
3358.00,99.01
3357.00,99.03
3356.00,99.03
3355.00,99.04
3354.00,99.04
3353.00,99.03
3352.00,99.02
3351.00,99.01
3350.00,99.01
3349.00,99.00
3348.00,99.00
3347.00,99.00
3346.00,98.99
3345.00,98.98
3344.00,98.98
3343.00,98.97
3342.00,98.98
3341.00,98.98
3340.00,98.98
3339.00,98.96
3338.00,98.94
3337.00,98.93
3336.00,98.92
3335.00,98.92
3334.00,98.94
3333.00,98.96
3332.00,98.97
3331.00,98.97
3330.00,98.96
3329.00,98.96
3328.00,98.95
3327.00,98.93
3326.00,98.93
3325.00,98.93
3324.00,98.94
3323.00,98.95
3322.00,98.95
3321.00,98.94
3320.00,98.93
3319.00,98.92
3318.00,98.92
3317.00,98.92
3316.00,98.92
3315.00,98.93
3314.00,98.94
3313.00,98.95
3312.00,98.96
3311.00,98.96
3310.00,98.97
3309.00,98.97
3308.00,98.96
3307.00,98.95
3306.00,98.94
3305.00,98.94
3304.00,98.93
3303.00,98.93
3302.00,98.93
3301.00,98.94
3300.00,98.94
3299.00,98.95
3298.00,98.95
3297.00,98.95
3296.00,98.96
3295.00,98.97
3294.00,98.97
3293.00,98.98
3292.00,98.99
3291.00,99.00
3290.00,99.01
3289.00,99.01
3288.00,99.02
3287.00,99.03
3286.00,99.04
3285.00,99.04
3284.00,99.03
3283.00,99.01
3282.00,98.99
3281.00,98.98
3280.00,98.97
3279.00,98.97
3278.00,98.98
3277.00,98.99
3276.00,99.00
3275.00,99.02
3274.00,99.03
3273.00,99.05
3272.00,99.06
3271.00,99.07
3270.00,99.08
3269.00,99.08
3268.00,99.09
3267.00,99.10
3266.00,99.10
3265.00,99.10
3264.00,99.09
3263.00,99.10
3262.00,99.11
3261.00,99.12
3260.00,99.13
3259.00,99.12
3258.00,99.12
3257.00,99.12
3256.00,99.13
3255.00,99.15
3254.00,99.16
3253.00,99.17
3252.00,99.17
3251.00,99.17
3250.00,99.18
3249.00,99.20
3248.00,99.22
3247.00,99.22
3246.00,99.23
3245.00,99.23
3244.00,99.24
3243.00,99.24
3242.00,99.24
3241.00,99.23
3240.00,99.23
3239.00,99.23
3238.00,99.24
3237.00,99.25
3236.00,99.25
3235.00,99.25
3234.00,99.24
3233.00,99.25
3232.00,99.27
3231.00,99.28
3230.00,99.30
3229.00,99.31
3228.00,99.32
3227.00,99.33
3226.00,99.33
3225.00,99.34
3224.00,99.34
3223.00,99.33
3222.00,99.33
3221.00,99.33
3220.00,99.33
3219.00,99.34
3218.00,99.34
3217.00,99.35
3216.00,99.35
3215.00,99.34
3214.00,99.33
3213.00,99.34
3212.00,99.36
3211.00,99.38
3210.00,99.39
3209.00,99.40
3208.00,99.41
3207.00,99.41
3206.00,99.40
3205.00,99.39
3204.00,99.39
3203.00,99.39
3202.00,99.40
3201.00,99.41
3200.00,99.41
3199.00,99.41
3198.00,99.42
3197.00,99.42
3196.00,99.43
3195.00,99.43
3194.00,99.43
3193.00,99.43
3192.00,99.44
3191.00,99.44
3190.00,99.44
3189.00,99.44
3188.00,99.45
3187.00,99.45
3186.00,99.44
3185.00,99.43
3184.00,99.43
3183.00,99.42
3182.00,99.43
3181.00,99.46
3180.00,99.48
3179.00,99.49
3178.00,99.49
3177.00,99.48
3176.00,99.47
3175.00,99.48
3174.00,99.49
3173.00,99.49
3172.00,99.50
3171.00,99.50
3170.00,99.50
3169.00,99.50
3168.00,99.50
3167.00,99.51
3166.00,99.52
3165.00,99.52
3164.00,99.52
3163.00,99.52
3162.00,99.51
3161.00,99.50
3160.00,99.50
3159.00,99.50
3158.00,99.49
3157.00,99.49
3156.00,99.49
3155.00,99.49
3154.00,99.49
3153.00,99.49
3152.00,99.49
3151.00,99.49
3150.00,99.48
3149.00,99.48
3148.00,99.48
3147.00,99.49
3146.00,99.50
3145.00,99.51
3144.00,99.51
3143.00,99.50
3142.00,99.48
3141.00,99.47
3140.00,99.47
3139.00,99.47
3138.00,99.48
3137.00,99.49
3136.00,99.51
3135.00,99.53
3134.00,99.54
3133.00,99.53
3132.00,99.51
3131.00,99.49
3130.00,99.49
3129.00,99.49
3128.00,99.50
3127.00,99.50
3126.00,99.50
3125.00,99.50
3124.00,99.50
3123.00,99.51
3122.00,99.51
3121.00,99.51
3120.00,99.52
3119.00,99.52
3118.00,99.52
3117.00,99.50
3116.00,99.49
3115.00,99.48
3114.00,99.49
3113.00,99.51
3112.00,99.52
3111.00,99.53
3110.00,99.53
3109.00,99.52
3108.00,99.50
3107.00,99.48
3106.00,99.48
3105.00,99.47
3104.00,99.47
3103.00,99.48
3102.00,99.49
3101.00,99.49
3100.00,99.49
3099.00,99.47
3098.00,99.46
3097.00,99.45
3096.00,99.44
3095.00,99.45
3094.00,99.46
3093.00,99.47
3092.00,99.48
3091.00,99.48
3090.00,99.47
3089.00,99.46
3088.00,99.45
3087.00,99.45
3086.00,99.45
3085.00,99.45
3084.00,99.45
3083.00,99.44
3082.00,99.42
3081.00,99.42
3080.00,99.43
3079.00,99.44
3078.00,99.45
3077.00,99.46
3076.00,99.47
3075.00,99.46
3074.00,99.45
3073.00,99.43
3072.00,99.42
3071.00,99.41
3070.00,99.41
3069.00,99.40
3068.00,99.39
3067.00,99.39
3066.00,99.39
3065.00,99.39
3064.00,99.38
3063.00,99.37
3062.00,99.37
3061.00,99.37
3060.00,99.36
3059.00,99.36
3058.00,99.35
3057.00,99.34
3056.00,99.33
3055.00,99.33
3054.00,99.33
3053.00,99.33
3052.00,99.32
3051.00,99.30
3050.00,99.28
3049.00,99.28
3048.00,99.28
3047.00,99.28
3046.00,99.27
3045.00,99.26
3044.00,99.24
3043.00,99.23
3042.00,99.21
3041.00,99.20
3040.00,99.19
3039.00,99.17
3038.00,99.16
3037.00,99.16
3036.00,99.16
3035.00,99.16
3034.00,99.15
3033.00,99.14
3032.00,99.13
3031.00,99.12
3030.00,99.12
3029.00,99.11
3028.00,99.10
3027.00,99.09
3026.00,99.08
3025.00,99.07
3024.00,99.05
3023.00,99.02
3022.00,98.99
3021.00,98.96
3020.00,98.95
3019.00,98.95
3018.00,98.93
3017.00,98.91
3016.00,98.88
3015.00,98.86
3014.00,98.85
3013.00,98.84
3012.00,98.83
3011.00,98.80
3010.00,98.77
3009.00,98.73
3008.00,98.70
3007.00,98.66
3006.00,98.63
3005.00,98.59
3004.00,98.55
3003.00,98.51
3002.00,98.46
3001.00,98.40
3000.00,98.35
2999.00,98.28
2998.00,98.21
2997.00,98.13
2996.00,98.06
2995.00,97.99
2994.00,97.91
2993.00,97.83
2992.00,97.72
2991.00,97.60
2990.00,97.47
2989.00,97.33
2988.00,97.18
2987.00,97.01
2986.00,96.82
2985.00,96.60
2984.00,96.36
2983.00,96.10
2982.00,95.80
2981.00,95.45
2980.00,95.06
2979.00,94.61
2978.00,94.10
2977.00,93.53
2976.00,92.88
2975.00,92.15
2974.00,91.34
2973.00,90.45
2972.00,89.46
2971.00,88.37
2970.00,87.19
2969.00,85.92
2968.00,84.60
2967.00,83.25
2966.00,81.91
2965.00,80.62
2964.00,79.46
2963.00,78.46
2962.00,77.67
2961.00,77.11
2960.00,76.82
2959.00,76.78
2958.00,76.98
2957.00,77.41
2956.00,78.04
2955.00,78.84
2954.00,79.75
2953.00,80.71
2952.00,81.67
2951.00,82.54
2950.00,83.24
2949.00,83.71
2948.00,83.93
2947.00,83.87
2946.00,83.56
2945.00,83.01
2944.00,82.25
2943.00,81.32
2942.00,80.23
2941.00,79.02
2940.00,77.71
2939.00,76.33
2938.00,74.88
2937.00,73.40
2936.00,71.91
2935.00,70.42
2934.00,68.93
2933.00,67.45
2932.00,65.98
2931.00,64.53
2930.00,63.09
2929.00,61.69
2928.00,60.35
2927.00,59.12
2926.00,57.99
2925.00,57.01
2924.00,56.22
2923.00,55.64
2922.00,55.29
2921.00,55.17
2920.00,55.27
2919.00,55.54
2918.00,55.97
2917.00,56.51
2916.00,57.15
2915.00,57.86
2914.00,58.61
2913.00,59.38
2912.00,60.16
2911.00,60.94
2910.00,61.73
2909.00,62.51
2908.00,63.31
2907.00,64.12
2906.00,64.95
2905.00,65.80
2904.00,66.70
2903.00,67.62
2902.00,68.57
2901.00,69.53
2900.00,70.52
2899.00,71.51
2898.00,72.51
2897.00,73.50
2896.00,74.48
2895.00,75.45
2894.00,76.42
2893.00,77.37
2892.00,78.29
2891.00,79.18
2890.00,80.02
2889.00,80.77
2888.00,81.44
2887.00,82.02
2886.00,82.49
2885.00,82.84
2884.00,83.06
2883.00,83.15
2882.00,83.09
2881.00,82.87
2880.00,82.48
2879.00,81.94
2878.00,81.29
2877.00,80.60
2876.00,79.93
2875.00,79.36
2874.00,78.96
2873.00,78.78
2872.00,78.84
2871.00,79.10
2870.00,79.45
2869.00,79.80
2868.00,80.04
2867.00,80.10
2866.00,79.92
2865.00,79.51
2864.00,78.87
2863.00,78.02
2862.00,76.97
2861.00,75.74
2860.00,74.39
2859.00,72.95
2858.00,71.48
2857.00,70.06
2856.00,68.77
2855.00,67.71
2854.00,66.98
2853.00,66.67
2852.00,66.84
2851.00,67.48
2850.00,68.56
2849.00,70.02
2848.00,71.79
2847.00,73.78
2846.00,75.90
2845.00,78.05
2844.00,80.17
2843.00,82.19
2842.00,84.05
2841.00,85.73
2840.00,87.23
2839.00,88.55
2838.00,89.70
2837.00,90.68
2836.00,91.51
2835.00,92.23
2834.00,92.83
2833.00,93.35
2832.00,93.80
2831.00,94.19
2830.00,94.53
2829.00,94.83
2828.00,95.10
2827.00,95.34
2826.00,95.54
2825.00,95.72
2824.00,95.89
2823.00,96.05
2822.00,96.19
2821.00,96.33
2820.00,96.45
2819.00,96.57
2818.00,96.68
2817.00,96.80
2816.00,96.90
2815.00,97.00
2814.00,97.09
2813.00,97.17
2812.00,97.24
2811.00,97.29
2810.00,97.35
2809.00,97.41
2808.00,97.47
2807.00,97.53
2806.00,97.59
2805.00,97.64
2804.00,97.70
2803.00,97.75
2802.00,97.80
2801.00,97.84
2800.00,97.89
2799.00,97.94
2798.00,97.99
2797.00,98.05
2796.00,98.10
2795.00,98.14
2794.00,98.18
2793.00,98.21
2792.00,98.26
2791.00,98.30
2790.00,98.34
2789.00,98.37
2788.00,98.40
2787.00,98.43
2786.00,98.46
2785.00,98.50
2784.00,98.53
2783.00,98.56
2782.00,98.58
2781.00,98.60
2780.00,98.63
2779.00,98.65
2778.00,98.68
2777.00,98.72
2776.00,98.74
2775.00,98.76
2774.00,98.77
2773.00,98.78
2772.00,98.80
2771.00,98.82
2770.00,98.84
2769.00,98.85
2768.00,98.87
2767.00,98.88
2766.00,98.88
2765.00,98.88
2764.00,98.89
2763.00,98.90
2762.00,98.92
2761.00,98.93
2760.00,98.94
2759.00,98.94
2758.00,98.94
2757.00,98.94
2756.00,98.94
2755.00,98.94
2754.00,98.93
2753.00,98.92
2752.00,98.92
2751.00,98.92
2750.00,98.93
2749.00,98.94
2748.00,98.94
2747.00,98.94
2746.00,98.94
2745.00,98.92
2744.00,98.91
2743.00,98.91
2742.00,98.90
2741.00,98.90
2740.00,98.89
2739.00,98.88
2738.00,98.87
2737.00,98.85
2736.00,98.82
2735.00,98.80
2734.00,98.78
2733.00,98.77
2732.00,98.76
2731.00,98.75
2730.00,98.75
2729.00,98.75
2728.00,98.76
2727.00,98.77
2726.00,98.78
2725.00,98.79
2724.00,98.81
2723.00,98.82
2722.00,98.82
2721.00,98.82
2720.00,98.83
2719.00,98.84
2718.00,98.85
2717.00,98.86
2716.00,98.87
2715.00,98.88
2714.00,98.90
2713.00,98.91
2712.00,98.93
2711.00,98.94
2710.00,98.94
2709.00,98.94
2708.00,98.93
2707.00,98.93
2706.00,98.94
2705.00,98.94
2704.00,98.94
2703.00,98.94
2702.00,98.93
2701.00,98.92
2700.00,98.92
2699.00,98.91
2698.00,98.92
2697.00,98.92
2696.00,98.92
2695.00,98.92
2694.00,98.91
2693.00,98.91
2692.00,98.93
2691.00,98.94
2690.00,98.95
2689.00,98.95
2688.00,98.95
2687.00,98.95
2686.00,98.95
2685.00,98.95
2684.00,98.95
2683.00,98.95
2682.00,98.95
2681.00,98.96
2680.00,98.97
2679.00,98.97
2678.00,98.98
2677.00,98.98
2676.00,98.98
2675.00,98.99
2674.00,99.00
2673.00,99.01
2672.00,99.02
2671.00,99.02
2670.00,99.03
2669.00,99.04
2668.00,99.04
2667.00,99.04
2666.00,99.05
2665.00,99.06
2664.00,99.06
2663.00,99.06
2662.00,99.06
2661.00,99.07
2660.00,99.08
2659.00,99.09
2658.00,99.09
2657.00,99.10
2656.00,99.11
2655.00,99.11
2654.00,99.11
2653.00,99.11
2652.00,99.11
2651.00,99.12
2650.00,99.13
2649.00,99.15
2648.00,99.16
2647.00,99.17
2646.00,99.18
2645.00,99.18
2644.00,99.18
2643.00,99.17
2642.00,99.17
2641.00,99.18
2640.00,99.18
2639.00,99.18
2638.00,99.18
2637.00,99.19
2636.00,99.20
2635.00,99.21
2634.00,99.21
2633.00,99.21
2632.00,99.22
2631.00,99.23
2630.00,99.24
2629.00,99.23
2628.00,99.23
2627.00,99.23
2626.00,99.24
2625.00,99.24
2624.00,99.24
2623.00,99.24
2622.00,99.23
2621.00,99.23
2620.00,99.22
2619.00,99.22
2618.00,99.21
2617.00,99.20
2616.00,99.19
2615.00,99.19
2614.00,99.19
2613.00,99.20
2612.00,99.21
2611.00,99.22
2610.00,99.22
2609.00,99.22
2608.00,99.22
2607.00,99.22
2606.00,99.23
2605.00,99.24
2604.00,99.25
2603.00,99.26
2602.00,99.26
2601.00,99.26
2600.00,99.25
2599.00,99.24
2598.00,99.24
2597.00,99.24
2596.00,99.25
2595.00,99.25
2594.00,99.24
2593.00,99.24
2592.00,99.24
2591.00,99.25
2590.00,99.26
2589.00,99.27
2588.00,99.27
2587.00,99.28
2586.00,99.29
2585.00,99.31
2584.00,99.33
2583.00,99.34
2582.00,99.35
2581.00,99.35
2580.00,99.36
2579.00,99.36
2578.00,99.38
2577.00,99.39
2576.00,99.41
2575.00,99.40
2574.00,99.39
2573.00,99.39
2572.00,99.39
2571.00,99.41
2570.00,99.41
2569.00,99.40
2568.00,99.39
2567.00,99.38
2566.00,99.40
2565.00,99.42
2564.00,99.43
2563.00,99.43
2562.00,99.43
2561.00,99.44
2560.00,99.44
2559.00,99.45
2558.00,99.46
2557.00,99.47
2556.00,99.48
2555.00,99.49
2554.00,99.49
2553.00,99.48
2552.00,99.47
2551.00,99.47
2550.00,99.49
2549.00,99.51
2548.00,99.52
2547.00,99.53
2546.00,99.54
2545.00,99.54
2544.00,99.53
2543.00,99.52
2542.00,99.51
2541.00,99.50
2540.00,99.51
2539.00,99.52
2538.00,99.54
2537.00,99.55
2536.00,99.56
2535.00,99.56
2534.00,99.56
2533.00,99.57
2532.00,99.58
2531.00,99.59
2530.00,99.59
2529.00,99.60
2528.00,99.60
2527.00,99.60
2526.00,99.60
2525.00,99.59
2524.00,99.59
2523.00,99.59
2522.00,99.61
2521.00,99.63
2520.00,99.64
2519.00,99.64
2518.00,99.63
2517.00,99.63
2516.00,99.63
2515.00,99.64
2514.00,99.64
2513.00,99.65
2512.00,99.66
2511.00,99.67
2510.00,99.66
2509.00,99.65
2508.00,99.65
2507.00,99.65
2506.00,99.67
2505.00,99.68
2504.00,99.69
2503.00,99.69
2502.00,99.69
2501.00,99.68
2500.00,99.67
2499.00,99.67
2498.00,99.67
2497.00,99.67
2496.00,99.67
2495.00,99.68
2494.00,99.69
2493.00,99.70
2492.00,99.72
2491.00,99.72
2490.00,99.71
2489.00,99.71
2488.00,99.71
2487.00,99.72
2486.00,99.72
2485.00,99.72
2484.00,99.72
2483.00,99.72
2482.00,99.72
2481.00,99.72
2480.00,99.72
2479.00,99.71
2478.00,99.71
2477.00,99.71
2476.00,99.71
2475.00,99.71
2474.00,99.70
2473.00,99.68
2472.00,99.68
2471.00,99.69
2470.00,99.71
2469.00,99.73
2468.00,99.73
2467.00,99.73
2466.00,99.73
2465.00,99.73
2464.00,99.73
2463.00,99.72
2462.00,99.72
2461.00,99.72
2460.00,99.71
2459.00,99.70
2458.00,99.69
2457.00,99.69
2456.00,99.70
2455.00,99.71
2454.00,99.72
2453.00,99.73
2452.00,99.75
2451.00,99.76
2450.00,99.75
2449.00,99.74
2448.00,99.73
2447.00,99.72
2446.00,99.71
2445.00,99.71
2444.00,99.71
2443.00,99.72
2442.00,99.71
2441.00,99.71
2440.00,99.71
2439.00,99.71
2438.00,99.71
2437.00,99.71
2436.00,99.72
2435.00,99.72
2434.00,99.72
2433.00,99.70
2432.00,99.70
2431.00,99.70
2430.00,99.71
2429.00,99.72
2428.00,99.72
2427.00,99.72
2426.00,99.72
2425.00,99.73
2424.00,99.72
2423.00,99.72
2422.00,99.71
2421.00,99.70
2420.00,99.70
2419.00,99.69
2418.00,99.68
2417.00,99.67
2416.00,99.67
2415.00,99.67
2414.00,99.68
2413.00,99.68
2412.00,99.67
2411.00,99.67
2410.00,99.67
2409.00,99.68
2408.00,99.69
2407.00,99.69
2406.00,99.70
2405.00,99.71
2404.00,99.72
2403.00,99.72
2402.00,99.72
2401.00,99.72
2400.00,99.72
2399.00,99.71
2398.00,99.70
2397.00,99.68
2396.00,99.66
2395.00,99.66
2394.00,99.67
2393.00,99.69
2392.00,99.71
2391.00,99.72
2390.00,99.71
2389.00,99.69
2388.00,99.68
2387.00,99.69
2386.00,99.70
2385.00,99.71
2384.00,99.73
2383.00,99.75
2382.00,99.78
2381.00,99.80
2380.00,99.82
2379.00,99.82
2378.00,99.81
2377.00,99.80
2376.00,99.78
2375.00,99.76
2374.00,99.76
2373.00,99.77
2372.00,99.78
2371.00,99.81
2370.00,99.84
2369.00,99.88
2368.00,99.89
2367.00,99.88
2366.00,99.84
2365.00,99.81
2364.00,99.80
2363.00,99.82
2362.00,99.84
2361.00,99.84
2360.00,99.82
2359.00,99.81
2358.00,99.80
2357.00,99.79
2356.00,99.79
2355.00,99.79
2354.00,99.80
2353.00,99.80
2352.00,99.80
2351.00,99.80
2350.00,99.81
2349.00,99.81
2348.00,99.81
2347.00,99.80
2346.00,99.80
2345.00,99.81
2344.00,99.82
2343.00,99.84
2342.00,99.85
2341.00,99.85
2340.00,99.85
2339.00,99.85
2338.00,99.84
2337.00,99.82
2336.00,99.78
2335.00,99.75
2334.00,99.73
2333.00,99.73
2332.00,99.73
2331.00,99.73
2330.00,99.72
2329.00,99.72
2328.00,99.73
2327.00,99.75
2326.00,99.77
2325.00,99.78
2324.00,99.77
2323.00,99.76
2322.00,99.77
2321.00,99.79
2320.00,99.79
2319.00,99.79
2318.00,99.79
2317.00,99.80
2316.00,99.80
2315.00,99.79
2314.00,99.78
2313.00,99.78
2312.00,99.79
2311.00,99.80
2310.00,99.81
2309.00,99.80
2308.00,99.78
2307.00,99.77
2306.00,99.77
2305.00,99.78
2304.00,99.80
2303.00,99.81
2302.00,99.81
2301.00,99.81
2300.00,99.80
2299.00,99.80
2298.00,99.80
2297.00,99.80
2296.00,99.79
2295.00,99.78
2294.00,99.78
2293.00,99.79
2292.00,99.79
2291.00,99.78
2290.00,99.78
2289.00,99.78
2288.00,99.78
2287.00,99.78
2286.00,99.77
2285.00,99.76
2284.00,99.75
2283.00,99.75
2282.00,99.75
2281.00,99.75
2280.00,99.75
2279.00,99.75
2278.00,99.76
2277.00,99.77
2276.00,99.78
2275.00,99.79
2274.00,99.79
2273.00,99.79
2272.00,99.78
2271.00,99.78
2270.00,99.78
2269.00,99.78
2268.00,99.78
2267.00,99.78
2266.00,99.79
2265.00,99.79
2264.00,99.80
2263.00,99.80
2262.00,99.80
2261.00,99.80
2260.00,99.81
2259.00,99.80
2258.00,99.80
2257.00,99.80
2256.00,99.81
2255.00,99.83
2254.00,99.83
2253.00,99.81
2252.00,99.78
2251.00,99.76
2250.00,99.76
2249.00,99.77
2248.00,99.79
2247.00,99.80
2246.00,99.81
2245.00,99.80
2244.00,99.78
2243.00,99.77
2242.00,99.76
2241.00,99.78
2240.00,99.80
2239.00,99.83
2238.00,99.84
2237.00,99.84
2236.00,99.82
2235.00,99.80
2234.00,99.77
2233.00,99.75
2232.00,99.74
2231.00,99.74
2230.00,99.75
2229.00,99.77
2228.00,99.79
2227.00,99.81
2226.00,99.81
2225.00,99.81
2224.00,99.79
2223.00,99.77
2222.00,99.77
2221.00,99.78
2220.00,99.78
2219.00,99.77
2218.00,99.75
2217.00,99.73
2216.00,99.72
2215.00,99.73
2214.00,99.74
2213.00,99.76
2212.00,99.78
2211.00,99.80
2210.00,99.79
2209.00,99.74
2208.00,99.69
2207.00,99.64
2206.00,99.63
2205.00,99.66
2204.00,99.71
2203.00,99.77
2202.00,99.80
2201.00,99.79
2200.00,99.77
2199.00,99.77
2198.00,99.79
2197.00,99.83
2196.00,99.87
2195.00,99.87
2194.00,99.85
2193.00,99.81
2192.00,99.78
2191.00,99.75
2190.00,99.73
2189.00,99.73
2188.00,99.74
2187.00,99.75
2186.00,99.76
2185.00,99.76
2184.00,99.77
2183.00,99.81
2182.00,99.83
2181.00,99.83
2180.00,99.80
2179.00,99.79
2178.00,99.79
2177.00,99.81
2176.00,99.83
2175.00,99.85
2174.00,99.84
2173.00,99.80
2172.00,99.74
2171.00,99.70
2170.00,99.69
2169.00,99.71
2168.00,99.72
2167.00,99.72
2166.00,99.71
2165.00,99.69
2164.00,99.68
2163.00,99.68
2162.00,99.71
2161.00,99.73
2160.00,99.73
2159.00,99.70
2158.00,99.67
2157.00,99.65
2156.00,99.67
2155.00,99.71
2154.00,99.76
2153.00,99.79
2152.00,99.82
2151.00,99.85
2150.00,99.86
2149.00,99.83
2148.00,99.81
2147.00,99.80
2146.00,99.82
2145.00,99.84
2144.00,99.84
2143.00,99.83
2142.00,99.82
2141.00,99.80
2140.00,99.79
2139.00,99.80
2138.00,99.81
2137.00,99.83
2136.00,99.85
2135.00,99.85
2134.00,99.84
2133.00,99.81
2132.00,99.77
2131.00,99.75
2130.00,99.75
2129.00,99.75
2128.00,99.75
2127.00,99.76
2126.00,99.78
2125.00,99.79
2124.00,99.81
2123.00,99.81
2122.00,99.80
2121.00,99.80
2120.00,99.79
2119.00,99.79
2118.00,99.78
2117.00,99.76
2116.00,99.76
2115.00,99.77
2114.00,99.79
2113.00,99.82
2112.00,99.84
2111.00,99.85
2110.00,99.84
2109.00,99.82
2108.00,99.79
2107.00,99.78
2106.00,99.78
2105.00,99.79
2104.00,99.80
2103.00,99.81
2102.00,99.82
2101.00,99.82
2100.00,99.79
2099.00,99.76
2098.00,99.75
2097.00,99.76
2096.00,99.78
2095.00,99.80
2094.00,99.80
2093.00,99.78
2092.00,99.77
2091.00,99.78
2090.00,99.79
2089.00,99.80
2088.00,99.80
2087.00,99.79
2086.00,99.77
2085.00,99.76
2084.00,99.76
2083.00,99.78
2082.00,99.80
2081.00,99.81
2080.00,99.80
2079.00,99.79
2078.00,99.78
2077.00,99.78
2076.00,99.78
2075.00,99.79
2074.00,99.80
2073.00,99.81
2072.00,99.82
2071.00,99.82
2070.00,99.80
2069.00,99.77
2068.00,99.76
2067.00,99.77
2066.00,99.78
2065.00,99.78
2064.00,99.76
2063.00,99.74
2062.00,99.73
2061.00,99.74
2060.00,99.74
2059.00,99.75
2058.00,99.75
2057.00,99.76
2056.00,99.74
2055.00,99.72
2054.00,99.71
2053.00,99.74
2052.00,99.79
2051.00,99.85
2050.00,99.87
2049.00,99.85
2048.00,99.82
2047.00,99.79
2046.00,99.78
2045.00,99.76
2044.00,99.74
2043.00,99.73
2042.00,99.75
2041.00,99.78
2040.00,99.81
2039.00,99.83
2038.00,99.85
2037.00,99.87
2036.00,99.88
2035.00,99.86
2034.00,99.82
2033.00,99.75
2032.00,99.71
2031.00,99.71
2030.00,99.75
2029.00,99.80
2028.00,99.81
2027.00,99.79
2026.00,99.77
2025.00,99.76
2024.00,99.78
2023.00,99.82
2022.00,99.86
2021.00,99.86
2020.00,99.84
2019.00,99.84
2018.00,99.86
2017.00,99.89
2016.00,99.91
2015.00,99.92
2014.00,99.90
2013.00,99.86
2012.00,99.81
2011.00,99.77
2010.00,99.76
2009.00,99.76
2008.00,99.76
2007.00,99.78
2006.00,99.80
2005.00,99.83
2004.00,99.85
2003.00,99.88
2002.00,99.89
2001.00,99.86
2000.00,99.81
1999.00,99.78
1998.00,99.78
1997.00,99.81
1996.00,99.82
1995.00,99.84
1994.00,99.87
1993.00,99.89
1992.00,99.88
1991.00,99.86
1990.00,99.86
1989.00,99.89
1988.00,99.93
1987.00,99.96
1986.00,99.95
1985.00,99.92
1984.00,99.88
1983.00,99.85
1982.00,99.85
1981.00,99.85
1980.00,99.86
1979.00,99.89
1978.00,99.92
1977.00,99.91
1976.00,99.87
1975.00,99.82
1974.00,99.78
1973.00,99.76
1972.00,99.75
1971.00,99.77
1970.00,99.80
1969.00,99.83
1968.00,99.85
1967.00,99.86
1966.00,99.86
1965.00,99.87
1964.00,99.87
1963.00,99.88
1962.00,99.88
1961.00,99.89
1960.00,99.90
1959.00,99.90
1958.00,99.88
1957.00,99.85
1956.00,99.82
1955.00,99.79
1954.00,99.77
1953.00,99.75
1952.00,99.74
1951.00,99.74
1950.00,99.76
1949.00,99.79
1948.00,99.81
1947.00,99.82
1946.00,99.82
1945.00,99.81
1944.00,99.80
1943.00,99.79
1942.00,99.80
1941.00,99.80
1940.00,99.80
1939.00,99.81
1938.00,99.81
1937.00,99.81
1936.00,99.80
1935.00,99.79
1934.00,99.77
1933.00,99.77
1932.00,99.77
1931.00,99.79
1930.00,99.82
1929.00,99.84
1928.00,99.86
1927.00,99.86
1926.00,99.86
1925.00,99.84
1924.00,99.82
1923.00,99.81
1922.00,99.80
1921.00,99.79
1920.00,99.77
1919.00,99.77
1918.00,99.79
1917.00,99.82
1916.00,99.84
1915.00,99.84
1914.00,99.83
1913.00,99.81
1912.00,99.79
1911.00,99.78
1910.00,99.79
1909.00,99.80
1908.00,99.81
1907.00,99.82
1906.00,99.82
1905.00,99.81
1904.00,99.80
1903.00,99.79
1902.00,99.80
1901.00,99.80
1900.00,99.81
1899.00,99.82
1898.00,99.82
1897.00,99.81
1896.00,99.80
1895.00,99.79
1894.00,99.79
1893.00,99.79
1892.00,99.80
1891.00,99.81
1890.00,99.82
1889.00,99.82
1888.00,99.82
1887.00,99.82
1886.00,99.81
1885.00,99.80
1884.00,99.80
1883.00,99.80
1882.00,99.80
1881.00,99.80
1880.00,99.79
1879.00,99.78
1878.00,99.78
1877.00,99.79
1876.00,99.79
1875.00,99.79
1874.00,99.79
1873.00,99.79
1872.00,99.80
1871.00,99.81
1870.00,99.81
1869.00,99.81
1868.00,99.80
1867.00,99.80
1866.00,99.80
1865.00,99.79
1864.00,99.79
1863.00,99.78
1862.00,99.78
1861.00,99.79
1860.00,99.79
1859.00,99.81
1858.00,99.83
1857.00,99.83
1856.00,99.82
1855.00,99.80
1854.00,99.78
1853.00,99.77
1852.00,99.77
1851.00,99.78
1850.00,99.79
1849.00,99.78
1848.00,99.77
1847.00,99.78
1846.00,99.81
1845.00,99.85
1844.00,99.86
1843.00,99.85
1842.00,99.82
1841.00,99.80
1840.00,99.78
1839.00,99.78
1838.00,99.80
1837.00,99.81
1836.00,99.82
1835.00,99.81
1834.00,99.79
1833.00,99.78
1832.00,99.78
1831.00,99.78
1830.00,99.78
1829.00,99.79
1828.00,99.80
1827.00,99.81
1826.00,99.82
1825.00,99.81
1824.00,99.78
1823.00,99.76
1822.00,99.75
1821.00,99.76
1820.00,99.77
1819.00,99.79
1818.00,99.81
1817.00,99.82
1816.00,99.81
1815.00,99.80
1814.00,99.79
1813.00,99.79
1812.00,99.79
1811.00,99.78
1810.00,99.78
1809.00,99.76
1808.00,99.75
1807.00,99.74
1806.00,99.74
1805.00,99.74
1804.00,99.74
1803.00,99.75
1802.00,99.76
1801.00,99.77
1800.00,99.77
1799.00,99.77
1798.00,99.77
1797.00,99.77
1796.00,99.77
1795.00,99.77
1794.00,99.76
1793.00,99.75
1792.00,99.75
1791.00,99.77
1790.00,99.78
1789.00,99.78
1788.00,99.78
1787.00,99.78
1786.00,99.79
1785.00,99.79
1784.00,99.78
1783.00,99.78
1782.00,99.77
1781.00,99.77
1780.00,99.78
1779.00,99.78
1778.00,99.78
1777.00,99.77
1776.00,99.76
1775.00,99.75
1774.00,99.75
1773.00,99.76
1772.00,99.76
1771.00,99.76
1770.00,99.75
1769.00,99.75
1768.00,99.76
1767.00,99.77
1766.00,99.77
1765.00,99.77
1764.00,99.77
1763.00,99.76
1762.00,99.75
1761.00,99.74
1760.00,99.74
1759.00,99.75
1758.00,99.75
1757.00,99.75
1756.00,99.75
1755.00,99.76
1754.00,99.77
1753.00,99.78
1752.00,99.77
1751.00,99.76
1750.00,99.75
1749.00,99.75
1748.00,99.74
1747.00,99.73
1746.00,99.73
1745.00,99.74
1744.00,99.74
1743.00,99.74
1742.00,99.73
1741.00,99.71
1740.00,99.70
1739.00,99.69
1738.00,99.69
1737.00,99.68
1736.00,99.66
1735.00,99.62
1734.00,99.59
1733.00,99.57
1732.00,99.56
1731.00,99.56
1730.00,99.57
1729.00,99.56
1728.00,99.55
1727.00,99.54
1726.00,99.53
1725.00,99.51
1724.00,99.50
1723.00,99.50
1722.00,99.49
1721.00,99.49
1720.00,99.48
1719.00,99.46
1718.00,99.45
1717.00,99.43
1716.00,99.41
1715.00,99.41
1714.00,99.41
1713.00,99.41
1712.00,99.41
1711.00,99.41
1710.00,99.42
1709.00,99.44
1708.00,99.46
1707.00,99.48
1706.00,99.50
1705.00,99.50
1704.00,99.49
1703.00,99.49
1702.00,99.50
1701.00,99.51
1700.00,99.53
1699.00,99.54
1698.00,99.54
1697.00,99.53
1696.00,99.52
1695.00,99.53
1694.00,99.54
1693.00,99.54
1692.00,99.54
1691.00,99.54
1690.00,99.54
1689.00,99.54
1688.00,99.54
1687.00,99.54
1686.00,99.53
1685.00,99.52
1684.00,99.53
1683.00,99.56
1682.00,99.58
1681.00,99.58
1680.00,99.57
1679.00,99.57
1678.00,99.58
1677.00,99.58
1676.00,99.59
1675.00,99.59
1674.00,99.59
1673.00,99.59
1672.00,99.59
1671.00,99.59
1670.00,99.58
1669.00,99.56
1668.00,99.55
1667.00,99.54
1666.00,99.53
1665.00,99.53
1664.00,99.51
1663.00,99.50
1662.00,99.50
1661.00,99.48
1660.00,99.47
1659.00,99.48
1658.00,99.49
1657.00,99.51
1656.00,99.52
1655.00,99.53
1654.00,99.55
1653.00,99.56
1652.00,99.55
1651.00,99.54
1650.00,99.54
1649.00,99.54
1648.00,99.53
1647.00,99.53
1646.00,99.53
1645.00,99.53
1644.00,99.53
1643.00,99.54
1642.00,99.54
1641.00,99.55
1640.00,99.55
1639.00,99.55
1638.00,99.55
1637.00,99.55
1636.00,99.54
1635.00,99.55
1634.00,99.56
1633.00,99.57
1632.00,99.57
1631.00,99.57
1630.00,99.57
1629.00,99.56
1628.00,99.55
1627.00,99.54
1626.00,99.55
1625.00,99.55
1624.00,99.56
1623.00,99.55
1622.00,99.54
1621.00,99.51
1620.00,99.49
1619.00,99.48
1618.00,99.49
1617.00,99.50
1616.00,99.51
1615.00,99.53
1614.00,99.53
1613.00,99.53
1612.00,99.52
1611.00,99.51
1610.00,99.50
1609.00,99.48
1608.00,99.47
1607.00,99.48
1606.00,99.49
1605.00,99.49
1604.00,99.48
1603.00,99.48
1602.00,99.49
1601.00,99.48
1600.00,99.47
1599.00,99.47
1598.00,99.47
1597.00,99.47
1596.00,99.47
1595.00,99.48
1594.00,99.49
1593.00,99.49
1592.00,99.49
1591.00,99.48
1590.00,99.48
1589.00,99.48
1588.00,99.47
1587.00,99.48
1586.00,99.48
1585.00,99.48
1584.00,99.48
1583.00,99.49
1582.00,99.49
1581.00,99.48
1580.00,99.47
1579.00,99.47
1578.00,99.48
1577.00,99.49
1576.00,99.48
1575.00,99.48
1574.00,99.48
1573.00,99.48
1572.00,99.47
1571.00,99.47
1570.00,99.47
1569.00,99.46
1568.00,99.45
1567.00,99.45
1566.00,99.45
1565.00,99.45
1564.00,99.44
1563.00,99.44
1562.00,99.45
1561.00,99.45
1560.00,99.43
1559.00,99.42
1558.00,99.42
1557.00,99.40
1556.00,99.37
1555.00,99.37
1554.00,99.38
1553.00,99.39
1552.00,99.38
1551.00,99.38
1550.00,99.39
1549.00,99.39
1548.00,99.38
1547.00,99.38
1546.00,99.38
1545.00,99.36
1544.00,99.34
1543.00,99.33
1542.00,99.34
1541.00,99.35
1540.00,99.35
1539.00,99.36
1538.00,99.37
1537.00,99.37
1536.00,99.36
1535.00,99.36
1534.00,99.37
1533.00,99.35
1532.00,99.32
1531.00,99.31
1530.00,99.29
1529.00,99.27
1528.00,99.24
1527.00,99.23
1526.00,99.25
1525.00,99.26
1524.00,99.25
1523.00,99.24
1522.00,99.22
1521.00,99.20
1520.00,99.18
1519.00,99.19
1518.00,99.20
1517.00,99.20
1516.00,99.19
1515.00,99.19
1514.00,99.19
1513.00,99.17
1512.00,99.14
1511.00,99.12
1510.00,99.13
1509.00,99.12
1508.00,99.10
1507.00,99.10
1506.00,99.10
1505.00,99.06
1504.00,99.02
1503.00,99.00
1502.00,98.99
1501.00,98.98
1500.00,98.94
1499.00,98.91
1498.00,98.90
1497.00,98.86
1496.00,98.81
1495.00,98.79
1494.00,98.77
1493.00,98.73
1492.00,98.66
1491.00,98.60
1490.00,98.55
1489.00,98.48
1488.00,98.39
1487.00,98.31
1486.00,98.24
1485.00,98.14
1484.00,98.03
1483.00,97.92
1482.00,97.80
1481.00,97.63
1480.00,97.44
1479.00,97.27
1478.00,97.08
1477.00,96.78
1476.00,96.39
1475.00,95.95
1474.00,95.34
1473.00,94.21
1472.00,92.62
1471.00,90.99
1470.00,89.44
1469.00,87.81
1468.00,86.08
1467.00,84.27
1466.00,82.29
1465.00,80.22
1464.00,78.51
1463.00,77.50
1462.00,77.02
1461.00,76.80
1460.00,76.79
1459.00,77.08
1458.00,77.78
1457.00,78.95
1456.00,80.24
1455.00,81.31
1454.00,82.25
1453.00,83.25
1452.00,84.32
1451.00,85.33
1450.00,86.17
1449.00,86.87
1448.00,87.48
1447.00,88.00
1446.00,88.37
1445.00,88.65
1444.00,88.93
1443.00,89.24
1442.00,89.58
1441.00,89.95
1440.00,90.34
1439.00,90.76
1438.00,91.28
1437.00,92.00
1436.00,92.82
1435.00,93.48
1434.00,93.97
1433.00,94.42
1432.00,94.91
1431.00,95.41
1430.00,95.89
1429.00,96.32
1428.00,96.67
1427.00,96.91
1426.00,97.08
1425.00,97.24
1424.00,97.42
1423.00,97.55
1422.00,97.62
1421.00,97.69
1420.00,97.77
1419.00,97.84
1418.00,97.89
1417.00,97.94
1416.00,97.99
1415.00,98.03
1414.00,98.05
1413.00,98.08
1412.00,98.11
1411.00,98.12
1410.00,98.11
1409.00,98.12
1408.00,98.13
1407.00,98.14
1406.00,98.14
1405.00,98.17
1404.00,98.20
1403.00,98.21
1402.00,98.19
1401.00,98.19
1400.00,98.18
1399.00,98.14
1398.00,98.08
1397.00,98.03
1396.00,97.98
1395.00,97.91
1394.00,97.84
1393.00,97.78
1392.00,97.71
1391.00,97.60
1390.00,97.44
1389.00,97.22
1388.00,96.87
1387.00,96.32
1386.00,95.57
1385.00,94.59
1384.00,93.32
1383.00,91.72
1382.00,89.98
1381.00,88.41
1380.00,87.33
1379.00,86.94
1378.00,87.25
1377.00,88.10
1376.00,89.27
1375.00,90.59
1374.00,91.84
1373.00,92.75
1372.00,93.27
1371.00,93.56
1370.00,93.76
1369.00,93.96
1368.00,94.15
1367.00,94.33
1366.00,94.49
1365.00,94.64
1364.00,94.81
1363.00,94.99
1362.00,95.19
1361.00,95.37
1360.00,95.51
1359.00,95.63
1358.00,95.73
1357.00,95.84
1356.00,95.93
1355.00,96.01
1354.00,96.08
1353.00,96.15
1352.00,96.21
1351.00,96.26
1350.00,96.32
1349.00,96.39
1348.00,96.45
1347.00,96.52
1346.00,96.59
1345.00,96.66
1344.00,96.72
1343.00,96.77
1342.00,96.82
1341.00,96.86
1340.00,96.90
1339.00,96.94
1338.00,96.98
1337.00,97.02
1336.00,97.06
1335.00,97.09
1334.00,97.12
1333.00,97.16
1332.00,97.20
1331.00,97.23
1330.00,97.26
1329.00,97.29
1328.00,97.31
1327.00,97.33
1326.00,97.34
1325.00,97.35
1324.00,97.35
1323.00,97.35
1322.00,97.35
1321.00,97.34
1320.00,97.33
1319.00,97.32
1318.00,97.31
1317.00,97.29
1316.00,97.28
1315.00,97.26
1314.00,97.24
1313.00,97.22
1312.00,97.19
1311.00,97.16
1310.00,97.13
1309.00,97.12
1308.00,97.10
1307.00,97.08
1306.00,97.06
1305.00,97.04
1304.00,97.03
1303.00,97.03
1302.00,97.02
1301.00,97.02
1300.00,97.02
1299.00,97.03
1298.00,97.05
1297.00,97.08
1296.00,97.12
1295.00,97.16
1294.00,97.20
1293.00,97.23
1292.00,97.26
1291.00,97.28
1290.00,97.32
1289.00,97.35
1288.00,97.38
1287.00,97.40
1286.00,97.41
1285.00,97.43
1284.00,97.45
1283.00,97.46
1282.00,97.47
1281.00,97.47
1280.00,97.47
1279.00,97.45
1278.00,97.43
1277.00,97.40
1276.00,97.38
1275.00,97.36
1274.00,97.35
1273.00,97.34
1272.00,97.35
1271.00,97.36
1270.00,97.37
1269.00,97.39
1268.00,97.41
1267.00,97.43
1266.00,97.46
1265.00,97.50
1264.00,97.56
1263.00,97.63
1262.00,97.69
1261.00,97.74
1260.00,97.79
1259.00,97.84
1258.00,97.89
1257.00,97.94
1256.00,97.98
1255.00,98.02
1254.00,98.06
1253.00,98.09
1252.00,98.11
1251.00,98.11
1250.00,98.12
1249.00,98.13
1248.00,98.14
1247.00,98.16
1246.00,98.18
1245.00,98.19
1244.00,98.20
1243.00,98.20
1242.00,98.20
1241.00,98.20
1240.00,98.21
1239.00,98.22
1238.00,98.24
1237.00,98.25
1236.00,98.25
1235.00,98.26
1234.00,98.26
1233.00,98.26
1232.00,98.28
1231.00,98.29
1230.00,98.29
1229.00,98.29
1228.00,98.27
1227.00,98.26
1226.00,98.25
1225.00,98.25
1224.00,98.27
1223.00,98.27
1222.00,98.27
1221.00,98.27
1220.00,98.27
1219.00,98.29
1218.00,98.31
1217.00,98.34
1216.00,98.37
1215.00,98.39
1214.00,98.40
1213.00,98.41
1212.00,98.42
1211.00,98.43
1210.00,98.45
1209.00,98.47
1208.00,98.50
1207.00,98.53
1206.00,98.54
1205.00,98.55
1204.00,98.55
1203.00,98.55
1202.00,98.55
1201.00,98.56
1200.00,98.58
1199.00,98.59
1198.00,98.60
1197.00,98.62
1196.00,98.63
1195.00,98.64
1194.00,98.65
1193.00,98.67
1192.00,98.68
1191.00,98.68
1190.00,98.67
1189.00,98.67
1188.00,98.67
1187.00,98.68
1186.00,98.70
1185.00,98.71
1184.00,98.71
1183.00,98.72
1182.00,98.73
1181.00,98.74
1180.00,98.76
1179.00,98.76
1178.00,98.76
1177.00,98.76
1176.00,98.77
1175.00,98.78
1174.00,98.79
1173.00,98.79
1172.00,98.79
1171.00,98.78
1170.00,98.78
1169.00,98.77
1168.00,98.77
1167.00,98.76
1166.00,98.74
1165.00,98.73
1164.00,98.71
1163.00,98.70
1162.00,98.68
1161.00,98.67
1160.00,98.65
1159.00,98.61
1158.00,98.57
1157.00,98.55
1156.00,98.53
1155.00,98.50
1154.00,98.46
1153.00,98.40
1152.00,98.36
1151.00,98.32
1150.00,98.30
1149.00,98.29
1148.00,98.28
1147.00,98.27
1146.00,98.27
1145.00,98.29
1144.00,98.30
1143.00,98.32
1142.00,98.32
1141.00,98.34
1140.00,98.35
1139.00,98.37
1138.00,98.36
1137.00,98.35
1136.00,98.34
1135.00,98.34
1134.00,98.35
1133.00,98.37
1132.00,98.37
1131.00,98.37
1130.00,98.36
1129.00,98.37
1128.00,98.38
1127.00,98.39
1126.00,98.41
1125.00,98.42
1124.00,98.44
1123.00,98.45
1122.00,98.45
1121.00,98.45
1120.00,98.45
1119.00,98.46
1118.00,98.47
1117.00,98.49
1116.00,98.51
1115.00,98.52
1114.00,98.53
1113.00,98.53
1112.00,98.53
1111.00,98.52
1110.00,98.52
1109.00,98.52
1108.00,98.53
1107.00,98.54
1106.00,98.54
1105.00,98.53
1104.00,98.51
1103.00,98.48
1102.00,98.45
1101.00,98.44
1100.00,98.45
1099.00,98.46
1098.00,98.46
1097.00,98.45
1096.00,98.44
1095.00,98.42
1094.00,98.39
1093.00,98.36
1092.00,98.33
1091.00,98.29
1090.00,98.24
1089.00,98.19
1088.00,98.14
1087.00,98.09
1086.00,98.04
1085.00,97.99
1084.00,97.93
1083.00,97.85
1082.00,97.76
1081.00,97.67
1080.00,97.58
1079.00,97.50
1078.00,97.43
1077.00,97.35
1076.00,97.26
1075.00,97.17
1074.00,97.06
1073.00,96.95
1072.00,96.84
1071.00,96.72
1070.00,96.60
1069.00,96.47
1068.00,96.35
1067.00,96.24
1066.00,96.12
1065.00,95.99
1064.00,95.86
1063.00,95.75
1062.00,95.67
1061.00,95.60
1060.00,95.52
1059.00,95.45
1058.00,95.39
1057.00,95.36
1056.00,95.37
1055.00,95.41
1054.00,95.47
1053.00,95.54
1052.00,95.62
1051.00,95.69
1050.00,95.76
1049.00,95.83
1048.00,95.90
1047.00,95.98
1046.00,96.05
1045.00,96.12
1044.00,96.18
1043.00,96.23
1042.00,96.29
1041.00,96.34
1040.00,96.39
1039.00,96.43
1038.00,96.45
1037.00,96.47
1036.00,96.48
1035.00,96.48
1034.00,96.49
1033.00,96.50
1032.00,96.50
1031.00,96.51
1030.00,96.51
1029.00,96.52
1028.00,96.52
1027.00,96.51
1026.00,96.50
1025.00,96.50
1024.00,96.50
1023.00,96.51
1022.00,96.52
1021.00,96.54
1020.00,96.54
1019.00,96.54
1018.00,96.54
1017.00,96.56
1016.00,96.59
1015.00,96.62
1014.00,96.66
1013.00,96.69
1012.00,96.71
1011.00,96.73
1010.00,96.74
1009.00,96.77
1008.00,96.78
1007.00,96.80
1006.00,96.82
1005.00,96.84
1004.00,96.86
1003.00,96.87
1002.00,96.89
1001.00,96.92
1000.00,96.95
999.00,96.97
998.00,96.99
997.00,97.03
996.00,97.09
995.00,97.16
994.00,97.23
993.00,97.29
992.00,97.36
991.00,97.41
990.00,97.47
989.00,97.52
988.00,97.57
987.00,97.62
986.00,97.66
985.00,97.70
984.00,97.73
983.00,97.74
982.00,97.75
981.00,97.76
980.00,97.78
979.00,97.80
978.00,97.80
977.00,97.80
976.00,97.80
975.00,97.81
974.00,97.82
973.00,97.82
972.00,97.81
971.00,97.79
970.00,97.77
969.00,97.77
968.00,97.78
967.00,97.79
966.00,97.80
965.00,97.82
964.00,97.83
963.00,97.84
962.00,97.85
961.00,97.87
960.00,97.90
959.00,97.91
958.00,97.92
957.00,97.92
956.00,97.92
955.00,97.91
954.00,97.90
953.00,97.89
952.00,97.87
951.00,97.86
950.00,97.85
949.00,97.85
948.00,97.84
947.00,97.82
946.00,97.77
945.00,97.73
944.00,97.71
943.00,97.70
942.00,97.69
941.00,97.69
940.00,97.67
939.00,97.65
938.00,97.62
937.00,97.60
936.00,97.60
935.00,97.61
934.00,97.62
933.00,97.64
932.00,97.64
931.00,97.65
930.00,97.67
929.00,97.71
928.00,97.77
927.00,97.82
926.00,97.86
925.00,97.89
924.00,97.93
923.00,97.97
922.00,98.00
921.00,98.01
920.00,98.00
919.00,97.99
918.00,97.98
917.00,97.99
916.00,98.00
915.00,98.00
914.00,98.01
913.00,98.02
912.00,98.03
911.00,98.02
910.00,98.00
909.00,97.98
908.00,97.97
907.00,97.97
906.00,97.98
905.00,97.99
904.00,97.99
903.00,98.00
902.00,98.00
901.00,97.99
900.00,97.97
899.00,97.93
898.00,97.91
897.00,97.91
896.00,97.94
895.00,97.97
894.00,97.99
893.00,98.00
892.00,98.00
891.00,97.99
890.00,97.98
889.00,97.99
888.00,98.02
887.00,98.05
886.00,98.09
885.00,98.11
884.00,98.13
883.00,98.13
882.00,98.12
881.00,98.11
880.00,98.11
879.00,98.10
878.00,98.08
877.00,98.05
876.00,98.02
875.00,97.98
874.00,97.96
873.00,97.94
872.00,97.92
871.00,97.90
870.00,97.87
869.00,97.87
868.00,97.89
867.00,97.92
866.00,97.96
865.00,98.00
864.00,98.04
863.00,98.06
862.00,98.08
861.00,98.10
860.00,98.12
859.00,98.14
858.00,98.14
857.00,98.14
856.00,98.15
855.00,98.17
854.00,98.21
853.00,98.24
852.00,98.26
851.00,98.27
850.00,98.28
849.00,98.30
848.00,98.32
847.00,98.33
846.00,98.33
845.00,98.31
844.00,98.29
843.00,98.28
842.00,98.28
841.00,98.30
840.00,98.32
839.00,98.33
838.00,98.33
837.00,98.31
836.00,98.30
835.00,98.29
834.00,98.29
833.00,98.27
832.00,98.26
831.00,98.25
830.00,98.24
829.00,98.22
828.00,98.21
827.00,98.20
826.00,98.20
825.00,98.20
824.00,98.18
823.00,98.16
822.00,98.16
821.00,98.16
820.00,98.16
819.00,98.14
818.00,98.10
817.00,98.07
816.00,98.05
815.00,98.04
814.00,98.04
813.00,98.04
812.00,98.03
811.00,97.98
810.00,97.90
809.00,97.83
808.00,97.78
807.00,97.74
806.00,97.70
805.00,97.64
804.00,97.57
803.00,97.49
802.00,97.41
801.00,97.36
800.00,97.31
799.00,97.26
798.00,97.19
797.00,97.11
796.00,97.04
795.00,96.99
794.00,96.94
793.00,96.88
792.00,96.79
791.00,96.66
790.00,96.52
789.00,96.38
788.00,96.24
787.00,96.10
786.00,95.93
785.00,95.77
784.00,95.61
783.00,95.46
782.00,95.32
781.00,95.20
780.00,95.09
779.00,94.97
778.00,94.85
777.00,94.73
776.00,94.58
775.00,94.42
774.00,94.26
773.00,94.13
772.00,94.04
771.00,93.99
770.00,93.96
769.00,93.94
768.00,93.93
767.00,93.93
766.00,93.94
765.00,94.00
764.00,94.09
763.00,94.21
762.00,94.35
761.00,94.49
760.00,94.63
759.00,94.80
758.00,94.98
757.00,95.18
756.00,95.38
755.00,95.58
754.00,95.77
753.00,95.95
752.00,96.12
751.00,96.27
750.00,96.39
749.00,96.47
748.00,96.53
747.00,96.57
746.00,96.62
745.00,96.68
744.00,96.74
743.00,96.79
742.00,96.81
741.00,96.83
740.00,96.82
739.00,96.81
738.00,96.78
737.00,96.74
736.00,96.70
735.00,96.65
734.00,96.58
733.00,96.45
732.00,96.27
731.00,96.04
730.00,95.75
729.00,95.41
728.00,95.02
727.00,94.61
726.00,94.18
725.00,93.75
724.00,93.33
723.00,92.97
722.00,92.76
721.00,92.73
720.00,92.91
719.00,93.27
718.00,93.73
717.00,94.22
716.00,94.69
715.00,95.11
714.00,95.48
713.00,95.81
712.00,96.11
711.00,96.39
710.00,96.65
709.00,96.89
708.00,97.11
707.00,97.28
706.00,97.41
705.00,97.54
704.00,97.67
703.00,97.80
702.00,97.90
701.00,97.97
700.00,98.01
699.00,98.05
698.00,98.10
697.00,98.17
696.00,98.25
695.00,98.29
694.00,98.29
693.00,98.28
692.00,98.28
691.00,98.31
690.00,98.34
689.00,98.35
688.00,98.36
687.00,98.39
686.00,98.45
685.00,98.53
684.00,98.58
683.00,98.57
682.00,98.54
681.00,98.51
680.00,98.50
679.00,98.49
678.00,98.45
677.00,98.40
676.00,98.38
675.00,98.38
674.00,98.38
673.00,98.39
672.00,98.42
671.00,98.44
670.00,98.47
669.00,98.51
668.00,98.54
667.00,98.53
666.00,98.50
665.00,98.44
664.00,98.38
663.00,98.33
662.00,98.30
661.00,98.29
660.00,98.29
659.00,98.31
658.00,98.34
657.00,98.35
656.00,98.34
655.00,98.33
654.00,98.33
653.00,98.37
652.00,98.44
651.00,98.51
650.00,98.52
649.00,98.45
648.00,98.34
647.00,98.24
646.00,98.22
645.00,98.26
644.00,98.31
643.00,98.31
642.00,98.27
641.00,98.23
640.00,98.22
639.00,98.21
638.00,98.18
637.00,98.15
636.00,98.18
635.00,98.29
634.00,98.42
633.00,98.53
632.00,98.61
631.00,98.63
630.00,98.56
629.00,98.40
628.00,98.20
627.00,98.05
626.00,97.98
625.00,97.98
624.00,98.04
623.00,98.18
622.00,98.37
621.00,98.57
620.00,98.69
619.00,98.70
618.00,98.64
617.00,98.58
616.00,98.56
615.00,98.54
614.00,98.51
613.00,98.48
612.00,98.47
611.00,98.51
610.00,98.56
609.00,98.56
608.00,98.46
607.00,98.28
606.00,98.09
605.00,97.97
604.00,97.93
603.00,97.97
602.00,98.08
601.00,98.28
600.00,98.53
